Created as New Dataset;Amostra 400 por Laboratório data segunda-feira, setembro 23 2024
cm-1;%T
4000,00;15,12
3998,07;15,14
3996,14;15,17
3994,21;15,20
3992,28;15,23
3990,35;15,27
3988,42;15,31
3986,49;15,35
3984,56;15,39
3982,63;15,43
3980,70;15,47
3978,77;15,50
3976,84;15,53
3974,91;15,56
3972,98;15,59
3971,05;15,61
3969,12;15,63
3967,19;15,65
3965,26;15,66
3963,33;15,68
3961,40;15,69
3959,47;15,70
3957,54;15,72
3955,61;15,73
3953,68;15,74
3951,75;15,75
3949,82;15,76
3947,89;15,77
3945,96;15,78
3944,03;15,79
3942,10;15,80
3940,17;15,80
3938,24;15,81
3936,31;15,81
3934,38;15,81
3932,45;15,82
3930,52;15,83
3928,59;15,83
3926,66;15,84
3924,73;15,84
3922,80;15,85
3920,87;15,85
3918,94;15,86
3917,01;15,87
3915,08;15,88
3913,15;15,88
3911,22;15,88
3909,29;15,88
3907,36;15,88
3905,43;15,89
3903,50;15,91
3901,57;15,93
3899,64;15,95
3897,71;15,95
3895,78;15,96
3893,85;15,96
3891,92;15,96
3889,99;15,97
3888,06;15,97
3886,13;15,98
3884,20;15,99
3882,27;16,00
3880,34;16,01
3878,41;16,02
3876,48;16,02
3874,55;16,02
3872,62;16,03
3870,69;16,04
3868,76;16,05
3866,83;16,06
3864,90;16,07
3862,97;16,08
3861,04;16,08
3859,11;16,07
3857,18;16,05
3855,25;16,04
3853,32;16,06
3851,39;16,09
3849,46;16,09
3847,53;16,08
3845,60;16,07
3843,67;16,06
3841,74;16,06
3839,81;16,06
3837,88;16,06
3835,95;16,06
3834,02;16,06
3832,09;16,05
3830,16;16,04
3828,23;16,03
3826,30;16,01
3824,37;16,00
3822,44;15,99
3820,51;15,99
3818,58;15,99
3816,65;15,99
3814,72;15,98
3812,79;15,98
3810,86;15,97
3808,93;15,96
3807,00;15,95
3805,07;15,95
3803,14;15,95
3801,21;15,94
3799,28;15,93
3797,35;15,93
3795,42;15,91
3793,49;15,89
3791,56;15,86
3789,63;15,84
3787,70;15,82
3785,77;15,80
3783,84;15,78
3781,91;15,76
3779,98;15,74
3778,05;15,73
3776,12;15,71
3774,19;15,68
3772,26;15,65
3770,33;15,63
3768,40;15,60
3766,47;15,57
3764,54;15,54
3762,61;15,50
3760,68;15,47
3758,75;15,43
3756,82;15,39
3754,89;15,35
3752,96;15,31
3751,03;15,26
3749,10;15,22
3747,17;15,17
3745,24;15,11
3743,31;15,04
3741,38;14,98
3739,45;14,91
3737,52;14,83
3735,59;14,75
3733,66;14,67
3731,73;14,58
3729,80;14,48
3727,87;14,39
3725,94;14,28
3724,01;14,17
3722,08;14,06
3720,15;13,94
3718,22;13,81
3716,29;13,68
3714,36;13,54
3712,43;13,39
3710,50;13,20
3708,57;13,00
3706,64;12,80
3704,71;12,59
3702,78;12,36
3700,85;12,11
3698,92;11,85
3696,99;11,58
3695,06;11,30
3693,13;11,03
3691,20;10,73
3689,27;10,39
3687,34;10,03
3685,41;9,70
3683,48;9,36
3681,55;9,02
3679,62;8,67
3677,69;8,32
3675,76;7,91
3673,83;7,50
3671,90;7,14
3669,97;6,73
3668,04;6,33
3666,11;5,97
3664,18;5,62
3662,25;5,27
3660,32;4,94
3658,39;4,63
3656,46;4,31
3654,53;4,01
3652,60;3,76
3650,67;3,50
3648,74;3,23
3646,81;2,98
3644,88;2,77
3642,95;2,58
3641,02;2,41
3639,09;2,25
3637,16;2,11
3635,23;1,97
3633,30;1,85
3631,37;1,75
3629,44;1,64
3627,51;1,52
3625,58;1,42
3623,65;1,33
3621,72;1,26
3619,79;1,18
3617,86;1,11
3615,93;1,05
3614,00;0,99
3612,07;0,94
3610,14;0,88
3608,21;0,83
3606,28;0,78
3604,35;0,73
3602,42;0,69
3600,49;0,66
3598,56;0,62
3596,63;0,59
3594,70;0,56
3592,77;0,53
3590,84;0,51
3588,91;0,49
3586,98;0,45
3585,05;0,42
3583,12;0,40
3581,19;0,39
3579,26;0,37
3577,33;0,35
3575,40;0,34
3573,47;0,32
3571,54;0,30
3569,61;0,29
3567,68;0,28
3565,75;0,27
3563,82;0,25
3561,89;0,24
3559,96;0,23
3558,03;0,22
3556,10;0,21
3554,17;0,20
3552,24;0,19
3550,31;0,18
3548,38;0,17
3546,45;0,16
3544,52;0,15
3542,59;0,15
3540,66;0,15
3538,73;0,14
3536,80;0,14
3534,87;0,13
3532,94;0,13
3531,01;0,13
3529,08;0,13
3527,15;0,12
3525,22;0,11
3523,29;0,11
3521,36;0,11
3519,43;0,10
3517,50;0,10
3515,57;0,09
3513,64;0,09
3511,71;0,09
3509,78;0,09
3507,85;0,08
3505,92;0,07
3503,99;0,06
3502,06;0,06
3500,13;0,06
3498,20;0,05
3496,27;0,05
3494,34;0,05
3492,41;0,05
3490,48;0,05
3488,55;0,05
3486,62;0,04
3484,69;0,05
3482,76;0,05
3480,83;0,04
3478,90;0,04
3476,97;0,04
3475,04;0,05
3473,11;0,05
3471,18;0,04
3469,25;0,04
3467,32;0,04
3465,39;0,04
3463,46;0,05
3461,53;0,04
3459,60;0,04
3457,67;0,05
3455,74;0,05
3453,81;0,05
3451,88;0,05
3449,95;0,05
3448,02;0,05
3446,09;0,05
3444,16;0,05
3442,23;0,05
3440,30;0,05
3438,37;0,04
3436,44;0,03
3434,51;0,03
3432,58;0,04
3430,65;0,04
3428,72;0,04
3426,79;0,04
3424,86;0,04
3422,93;0,04
3421,00;0,04
3419,07;0,04
3417,14;0,04
3415,21;0,03
3413,28;0,03
3411,35;0,03
3409,42;0,03
3407,49;0,03
3405,56;0,03
3403,63;0,03
3401,70;0,03
3399,77;0,03
3397,84;0,03
3395,91;0,03
3393,98;0,03
3392,05;0,03
3390,12;0,03
3388,19;0,03
3386,26;0,04
3384,33;0,04
3382,40;0,03
3380,47;0,03
3378,54;0,03
3376,61;0,03
3374,68;0,03
3372,75;0,03
3370,82;0,03
3368,89;0,03
3366,96;0,03
3365,03;0,03
3363,10;0,03
3361,17;0,03
3359,24;0,03
3357,31;0,04
3355,38;0,04
3353,45;0,03
3351,52;0,03
3349,59;0,04
3347,66;0,04
3345,73;0,04
3343,80;0,04
3341,87;0,04
3339,94;0,04
3338,01;0,04
3336,08;0,04
3334,15;0,04
3332,22;0,05
3330,29;0,05
3328,36;0,05
3326,43;0,05
3324,50;0,05
3322,57;0,05
3320,64;0,05
3318,71;0,06
3316,78;0,06
3314,85;0,06
3312,92;0,06
3310,99;0,06
3309,06;0,06
3307,13;0,06
3305,20;0,07
3303,27;0,07
3301,34;0,07
3299,41;0,08
3297,48;0,08
3295,55;0,08
3293,62;0,08
3291,69;0,09
3289,76;0,09
3287,83;0,09
3285,90;0,09
3283,97;0,10
3282,04;0,10
3280,11;0,10
3278,18;0,11
3276,25;0,11
3274,32;0,11
3272,39;0,11
3270,46;0,12
3268,53;0,12
3266,60;0,13
3264,67;0,13
3262,74;0,14
3260,81;0,14
3258,88;0,14
3256,95;0,15
3255,02;0,15
3253,09;0,16
3251,16;0,16
3249,23;0,17
3247,30;0,17
3245,37;0,18
3243,44;0,19
3241,51;0,19
3239,58;0,20
3237,65;0,21
3235,72;0,22
3233,79;0,23
3231,86;0,23
3229,93;0,24
3228,00;0,25
3226,07;0,27
3224,14;0,28
3222,21;0,29
3220,28;0,30
3218,35;0,31
3216,42;0,33
3214,49;0,34
3212,56;0,35
3210,63;0,37
3208,70;0,39
3206,77;0,40
3204,84;0,42
3202,91;0,44
3200,98;0,46
3199,05;0,48
3197,12;0,50
3195,19;0,52
3193,26;0,55
3191,33;0,57
3189,40;0,60
3187,47;0,62
3185,54;0,65
3183,61;0,68
3181,68;0,72
3179,75;0,75
3177,82;0,78
3175,89;0,82
3173,96;0,86
3172,03;0,90
3170,10;0,94
3168,17;0,99
3166,24;1,03
3164,31;1,08
3162,38;1,13
3160,45;1,18
3158,52;1,24
3156,59;1,29
3154,66;1,35
3152,73;1,41
3150,80;1,47
3148,87;1,53
3146,94;1,60
3145,01;1,67
3143,08;1,74
3141,15;1,80
3139,22;1,87
3137,29;1,95
3135,36;2,03
3133,43;2,11
3131,50;2,18
3129,57;2,27
3127,64;2,35
3125,71;2,43
3123,78;2,51
3121,85;2,59
3119,92;2,68
3117,99;2,77
3116,06;2,86
3114,13;2,95
3112,20;3,04
3110,27;3,13
3108,34;3,21
3106,41;3,30
3104,48;3,39
3102,55;3,48
3100,62;3,57
3098,69;3,66
3096,76;3,75
3094,83;3,83
3092,90;3,91
3090,97;3,99
3089,04;4,06
3087,11;4,13
3085,18;4,20
3083,25;4,27
3081,32;4,33
3079,39;4,39
3077,46;4,44
3075,53;4,49
3073,60;4,54
3071,67;4,58
3069,74;4,62
3067,81;4,66
3065,88;4,69
3063,95;4,73
3062,02;4,76
3060,09;4,80
3058,16;4,83
3056,23;4,87
3054,30;4,89
3052,37;4,91
3050,44;4,93
3048,51;4,94
3046,58;4,94
3044,65;4,93
3042,72;4,91
3040,79;4,89
3038,86;4,86
3036,93;4,81
3035,00;4,76
3033,07;4,68
3031,14;4,59
3029,21;4,49
3027,28;4,37
3025,35;4,25
3023,42;4,12
3021,49;3,97
3019,56;3,80
3017,63;3,63
3015,70;3,44
3013,77;3,24
3011,84;3,03
3009,91;2,82
3007,98;2,59
3006,05;2,35
3004,12;2,10
3002,19;1,85
3000,26;1,60
2998,33;1,35
2996,40;1,12
2994,47;0,91
2992,54;0,72
2990,61;0,55
2988,68;0,41
2986,75;0,29
2984,82;0,19
2982,89;0,12
2980,96;0,07
2979,03;0,04
2977,10;0,02
2975,17;0,01
2973,24;0,01
2971,31;0,01
2969,38;0,01
2967,45;0,01
2965,52;0,01
2963,59;0,01
2961,66;0,01
2959,73;0,01
2957,80;0,01
2955,87;0,01
2953,94;0,01
2952,01;0,00
2950,08;0,00
2948,15;0,00
2946,22;0,00
2944,29;0,00
2942,36;0,00
2940,43;0,00
2938,50;0,00
2936,57;0,00
2934,64;0,00
2932,71;0,00
2930,78;0,00
2928,85;0,00
2926,92;0,00
2924,99;0,00
2923,06;0,00
2921,13;0,00
2919,20;0,00
2917,27;0,00
2915,34;0,00
2913,41;0,00
2911,48;0,00
2909,55;0,00
2907,62;0,00
2905,69;0,00
2903,76;0,00
2901,83;0,00
2899,90;0,00
2897,97;0,00
2896,04;0,00
2894,11;0,00
2892,18;0,00
2890,25;0,00
2888,32;0,00
2886,39;0,00
2884,46;0,00
2882,53;0,00
2880,60;0,00
2878,67;0,00
2876,74;0,00
2874,81;0,00
2872,88;0,00
2870,95;0,00
2869,02;0,00
2867,09;0,00
2865,16;0,01
2863,23;0,01
2861,30;0,01
2859,37;0,01
2857,44;0,01
2855,51;0,01
2853,58;0,01
2851,65;0,01
2849,72;0,01
2847,79;0,01
2845,86;0,01
2843,93;0,02
2842,00;0,01
2840,07;0,01
2838,14;0,02
2836,21;0,03
2834,28;0,07
2832,35;0,15
2830,42;0,27
2828,49;0,44
2826,56;0,66
2824,63;0,91
2822,70;1,19
2820,77;1,50
2818,84;1,83
2816,91;2,18
2814,98;2,55
2813,05;2,94
2811,12;3,35
2809,19;3,78
2807,26;4,22
2805,33;4,67
2803,40;5,13
2801,47;5,59
2799,54;6,05
2797,61;6,51
2795,68;6,98
2793,75;7,44
2791,82;7,91
2789,89;8,39
2787,96;8,88
2786,03;9,38
2784,10;9,88
2782,17;10,38
2780,24;10,86
2778,31;11,34
2776,38;11,78
2774,45;12,20
2772,52;12,58
2770,59;12,93
2768,66;13,23
2766,73;13,50
2764,80;13,72
2762,87;13,90
2760,94;14,04
2759,01;14,17
2757,08;14,29
2755,15;14,40
2753,22;14,49
2751,29;14,54
2749,36;14,57
2747,43;14,55
2745,50;14,50
2743,57;14,40
2741,64;14,26
2739,71;14,07
2737,78;13,82
2735,85;13,52
2733,92;13,19
2731,99;12,88
2730,06;12,67
2728,13;12,61
2726,20;12,67
2724,27;12,81
2722,34;12,99
2720,41;13,21
2718,48;13,46
2716,55;13,76
2714,62;14,10
2712,69;14,46
2710,76;14,80
2708,83;15,08
2706,90;15,31
2704,97;15,49
2703,04;15,60
2701,11;15,67
2699,18;15,70
2697,25;15,69
2695,32;15,64
2693,39;15,57
2691,46;15,49
2689,53;15,41
2687,60;15,34
2685,67;15,30
2683,74;15,28
2681,81;15,27
2679,88;15,28
2677,95;15,29
2676,02;15,30
2674,09;15,31
2672,16;15,33
2670,23;15,39
2668,30;15,49
2666,37;15,64
2664,44;15,82
2662,51;16,02
2660,58;16,23
2658,65;16,44
2656,72;16,65
2654,79;16,84
2652,86;17,02
2650,93;17,18
2649,00;17,33
2647,07;17,46
2645,14;17,59
2643,21;17,71
2641,28;17,82
2639,35;17,93
2637,42;18,04
2635,49;18,14
2633,56;18,23
2631,63;18,32
2629,70;18,41
2627,77;18,49
2625,84;18,58
2623,91;18,66
2621,98;18,75
2620,05;18,84
2618,12;18,93
2616,19;19,03
2614,26;19,12
2612,33;19,23
2610,40;19,33
2608,47;19,45
2606,54;19,56
2604,61;19,69
2602,68;19,82
2600,75;19,97
2598,82;20,12
2596,89;20,29
2594,96;20,46
2593,03;20,64
2591,10;20,83
2589,17;21,03
2587,24;21,23
2585,31;21,44
2583,38;21,65
2581,45;21,88
2579,52;22,10
2577,59;22,32
2575,66;22,55
2573,73;22,77
2571,80;22,99
2569,87;23,21
2567,94;23,42
2566,01;23,61
2564,08;23,80
2562,15;23,98
2560,22;24,14
2558,29;24,30
2556,36;24,45
2554,43;24,59
2552,50;24,71
2550,57;24,83
2548,64;24,95
2546,71;25,06
2544,78;25,16
2542,85;25,26
2540,92;25,35
2538,99;25,44
2537,06;25,52
2535,13;25,60
2533,20;25,69
2531,27;25,78
2529,34;25,89
2527,41;26,00
2525,48;26,12
2523,55;26,24
2521,62;26,36
2519,69;26,47
2517,76;26,59
2515,83;26,70
2513,90;26,81
2511,97;26,91
2510,04;27,01
2508,11;27,10
2506,18;27,19
2504,25;27,27
2502,32;27,35
2500,39;27,43
2498,46;27,50
2496,53;27,57
2494,60;27,63
2492,67;27,69
2490,74;27,75
2488,81;27,80
2486,88;27,85
2484,95;27,89
2483,02;27,92
2481,09;27,96
2479,16;27,99
2477,23;28,02
2475,30;28,05
2473,37;28,07
2471,44;28,09
2469,51;28,12
2467,58;28,13
2465,65;28,15
2463,72;28,16
2461,79;28,17
2459,86;28,18
2457,93;28,18
2456,00;28,18
2454,07;28,18
2452,14;28,18
2450,21;28,17
2448,28;28,17
2446,35;28,16
2444,42;28,14
2442,49;28,13
2440,56;28,11
2438,63;28,09
2436,70;28,06
2434,77;28,04
2432,84;28,01
2430,91;27,98
2428,98;27,95
2427,05;27,91
2425,12;27,89
2423,19;27,87
2421,26;27,85
2419,33;27,82
2417,40;27,79
2415,47;27,77
2413,54;27,74
2411,61;27,72
2409,68;27,70
2407,75;27,68
2405,82;27,67
2403,89;27,66
2401,96;27,65
2400,03;27,65
2398,10;27,65
2396,17;27,66
2394,24;27,66
2392,31;27,67
2390,38;27,67
2388,45;27,68
2386,52;27,68
2384,59;27,69
2382,66;27,71
2380,73;27,73
2378,80;27,77
2376,87;27,81
2374,94;27,86
2373,01;27,90
2371,08;27,93
2369,15;27,96
2367,22;27,98
2365,29;27,99
2363,36;27,98
2361,43;27,96
2359,50;27,92
2357,57;27,88
2355,64;27,08
2353,71;27,14
2351,78;27,04
2349,85;26,83
2347,92;26,72
2345,99;26,75
2344,06;26,71
2342,13;26,60
2340,20;26,37
2338,27;25,93
2336,34;25,46
2334,41;25,39
2332,48;25,77
2330,55;26,18
2328,62;26,45
2326,69;26,61
2324,76;26,68
2322,83;26,69
2320,90;26,71
2318,97;26,78
2317,04;26,86
2315,11;26,85
2313,18;27,51
2311,25;27,47
2309,32;27,48
2307,39;27,49
2305,46;27,51
2303,53;27,52
2301,60;27,53
2299,67;27,54
2297,74;27,58
2295,81;27,27
2293,88;27,35
2291,95;27,41
2290,02;27,46
2288,09;27,50
2286,16;27,53
2284,23;27,56
2282,30;27,59
2280,37;27,62
2278,44;27,64
2276,51;27,67
2274,58;27,69
2272,65;27,69
2270,72;27,70
2268,79;27,71
2266,86;27,72
2264,93;27,73
2263,00;27,74
2261,07;27,75
2259,14;27,76
2257,21;27,77
2255,28;27,77
2253,35;27,78
2251,42;27,78
2249,49;27,78
2247,56;27,78
2245,63;27,78
2243,70;27,78
2241,77;27,77
2239,84;27,76
2237,91;27,75
2235,98;27,73
2234,05;27,72
2232,12;27,70
2230,19;27,68
2228,26;27,66
2226,33;27,64
2224,40;27,61
2222,47;27,59
2220,54;27,57
2218,61;27,55
2216,68;27,52
2214,75;27,49
2212,82;27,46
2210,89;27,43
2208,96;27,40
2207,03;27,37
2205,10;27,35
2203,17;27,32
2201,24;27,29
2199,31;27,25
2197,38;27,22
2195,45;27,19
2193,52;27,16
2191,59;27,12
2189,66;27,09
2187,73;27,05
2185,80;27,02
2183,87;27,00
2181,94;26,98
2180,01;26,97
2178,08;26,97
2176,15;26,95
2174,22;26,93
2172,29;26,92
2170,36;26,92
2168,43;26,91
2166,50;26,90
2164,57;26,89
2162,64;26,88
2160,71;26,87
2158,78;26,86
2156,85;26,85
2154,92;26,85
2152,99;26,85
2151,06;26,86
2149,13;26,88
2147,20;26,92
2145,27;26,96
2143,34;27,00
2141,41;27,05
2139,48;27,09
2137,55;27,13
2135,62;27,16
2133,69;27,19
2131,76;27,20
2129,83;27,22
2127,90;27,24
2125,97;27,25
2124,04;27,27
2122,11;27,28
2120,18;27,30
2118,25;27,31
2116,32;27,32
2114,39;27,34
2112,46;27,35
2110,53;27,37
2108,60;27,39
2106,67;27,40
2104,74;27,42
2102,81;27,44
2100,88;27,46
2098,95;27,48
2097,02;27,50
2095,09;27,52
2093,16;27,54
2091,23;27,57
2089,30;27,59
2087,37;27,61
2085,44;27,63
2083,51;27,66
2081,58;27,68
2079,65;27,71
2077,72;27,73
2075,79;27,76
2073,86;27,79
2071,93;27,81
2070,00;27,83
2068,07;27,86
2066,14;27,90
2064,21;27,92
2062,28;27,95
2060,35;27,97
2058,42;28,00
2056,49;28,02
2054,56;28,04
2052,63;28,06
2050,70;28,09
2048,77;28,11
2046,84;28,13
2044,91;28,15
2042,98;28,18
2041,05;28,21
2039,12;28,24
2037,19;28,28
2035,26;28,32
2033,33;28,37
2031,40;28,43
2029,47;28,49
2027,54;28,57
2025,61;28,66
2023,68;28,76
2021,75;28,88
2019,82;29,03
2017,89;29,20
2015,96;29,37
2014,03;29,54
2012,10;29,70
2010,17;29,86
2008,24;30,00
2006,31;30,13
2004,38;30,25
2002,45;30,36
2000,52;30,47
1998,59;30,57
1996,66;30,66
1994,73;30,76
1992,80;30,86
1990,87;30,96
1988,94;31,06
1987,01;31,14
1985,08;31,23
1983,15;31,31
1981,22;31,39
1979,29;31,47
1977,36;31,55
1975,43;31,63
1973,50;31,71
1971,57;31,76
1969,64;31,84
1967,71;31,93
1965,78;32,00
1963,85;32,07
1961,92;32,13
1959,99;32,19
1958,06;32,25
1956,13;32,31
1954,20;32,37
1952,27;32,43
1950,34;32,48
1948,41;32,52
1946,48;32,55
1944,55;32,61
1942,62;32,66
1940,69;32,69
1938,76;32,72
1936,83;32,76
1934,90;32,83
1932,97;32,90
1931,04;32,96
1929,11;33,01
1927,18;33,04
1925,25;33,11
1923,32;33,14
1921,39;33,16
1919,46;33,20
1917,53;33,26
1915,60;33,30
1913,67;33,32
1911,74;33,34
1909,81;33,39
1907,88;33,43
1905,95;33,47
1904,02;33,50
1902,09;33,53
1900,16;33,55
1898,23;33,58
1896,30;33,61
1894,37;33,61
1892,44;33,62
1890,51;33,67
1888,58;33,72
1886,65;33,77
1884,72;33,79
1882,79;33,82
1880,86;33,85
1878,93;33,88
1877,00;33,92
1875,07;33,93
1873,14;33,90
1871,21;33,90
1869,28;34,00
1867,35;34,13
1865,42;34,21
1863,49;34,22
1861,56;34,25
1859,63;34,27
1857,70;34,29
1855,77;34,30
1853,84;34,31
1851,91;34,31
1849,98;34,28
1848,05;34,18
1846,12;34,21
1844,19;34,31
1842,26;34,37
1840,33;34,37
1838,40;34,34
1836,47;34,32
1834,54;34,21
1832,61;34,10
1830,68;34,07
1828,75;34,09
1826,82;34,13
1824,89;34,13
1822,96;34,09
1821,03;34,03
1819,10;33,96
1817,17;33,89
1815,24;33,76
1813,31;33,65
1811,38;33,56
1809,45;33,49
1807,52;33,34
1805,59;33,14
1803,66;32,92
1801,73;32,71
1799,80;32,53
1797,87;32,32
1795,94;32,01
1794,01;31,83
1792,08;31,74
1790,15;31,59
1788,22;31,37
1786,29;31,12
1784,36;30,81
1782,43;30,52
1780,50;30,21
1778,57;29,83
1776,64;29,37
1774,71;28,95
1772,78;28,65
1770,85;28,47
1768,92;28,27
1766,99;27,81
1765,06;27,29
1763,13;26,68
1761,20;25,86
1759,27;24,83
1757,34;23,48
1755,41;21,64
1753,48;19,64
1751,55;17,32
1749,62;15,08
1747,69;13,42
1745,76;12,47
1743,83;12,12
1741,90;12,26
1739,97;12,74
1738,04;13,32
1736,11;13,87
1734,18;14,47
1732,25;14,96
1730,32;15,28
1728,39;15,50
1726,46;15,69
1724,53;15,81
1722,60;15,79
1720,67;15,66
1718,74;15,43
1716,81;15,07
1714,88;14,58
1712,95;13,99
1711,02;13,36
1709,09;12,75
1707,16;12,24
1705,23;11,78
1703,30;11,40
1701,37;11,14
1699,44;10,90
1697,51;10,81
1695,58;10,63
1693,65;10,40
1691,72;10,16
1689,79;9,83
1687,86;9,46
1685,93;9,11
1684,00;8,72
1682,07;8,36
1680,14;7,96
1678,21;7,54
1676,28;7,13
1674,35;6,70
1672,42;6,33
1670,49;6,00
1668,56;5,67
1666,63;5,36
1664,70;5,09
1662,77;4,83
1660,84;4,59
1658,91;4,36
1656,98;4,13
1655,05;3,96
1653,12;3,82
1651,19;3,66
1649,26;3,58
1647,33;3,51
1645,40;3,45
1643,47;3,40
1641,54;3,36
1639,61;3,30
1637,68;3,28
1635,75;3,29
1633,82;3,29
1631,89;3,31
1629,96;3,41
1628,03;3,61
1626,10;3,85
1624,17;4,12
1622,24;4,40
1620,31;4,63
1618,38;4,87
1616,45;5,19
1614,52;5,51
1612,59;5,78
1610,66;6,03
1608,73;6,31
1606,80;6,64
1604,87;7,03
1602,94;7,47
1601,01;7,92
1599,08;8,39
1597,15;8,91
1595,22;9,44
1593,29;9,94
1591,36;10,41
1589,43;10,85
1587,50;11,28
1585,57;11,69
1583,64;12,07
1581,71;12,40
1579,78;12,66
1577,85;12,96
1575,92;13,36
1573,99;13,70
1572,06;13,92
1570,13;14,20
1568,20;14,51
1566,27;14,75
1564,34;14,90
1562,41;14,93
1560,48;14,99
1558,55;15,44
1556,62;15,83
1554,69;16,08
1552,76;16,28
1550,83;16,50
1548,90;16,66
1546,97;16,77
1545,04;16,80
1543,11;16,80
1541,18;17,01
1539,25;17,37
1537,32;17,49
1535,39;17,52
1533,46;17,59
1531,53;17,57
1529,60;17,42
1527,67;17,20
1525,74;16,87
1523,81;16,48
1521,88;16,04
1519,95;15,40
1518,02;14,84
1516,09;14,39
1514,16;14,22
1512,23;14,25
1510,30;14,28
1508,37;14,26
1506,44;14,25
1504,51;14,09
1502,58;13,85
1500,65;13,47
1498,72;13,05
1496,79;12,52
1494,86;11,82
1492,93;11,05
1491,00;10,15
1489,07;9,14
1487,14;8,17
1485,21;7,24
1483,28;6,26
1481,35;5,18
1479,42;4,02
1477,49;2,88
1475,56;1,81
1473,63;0,94
1471,70;0,32
1469,77;0,07
1467,84;0,01
1465,91;0,00
1463,98;0,00
1462,05;0,00
1460,12;0,00
1458,19;0,00
1456,26;0,00
1454,33;0,01
1452,40;0,01
1450,47;0,04
1448,54;0,06
1446,61;0,11
1444,68;0,19
1442,75;0,32
1440,82;0,49
1438,89;0,73
1436,96;1,12
1435,03;1,73
1433,10;2,53
1431,17;3,63
1429,24;4,91
1427,31;6,09
1425,38;7,03
1423,45;7,79
1421,52;8,33
1419,59;8,84
1417,66;9,31
1415,73;9,65
1413,80;9,90
1411,87;10,09
1409,94;10,19
1408,01;10,23
1406,08;10,22
1404,15;10,17
1402,22;10,05
1400,29;9,86
1398,36;9,54
1396,43;9,02
1394,50;8,19
1392,57;7,13
1390,64;6,02
1388,71;4,78
1386,78;3,34
1384,85;2,05
1382,92;1,15
1380,99;0,55
1379,06;0,22
1377,13;0,13
1375,20;0,24
1373,27;0,57
1371,34;0,96
1369,41;1,15
1367,48;1,12
1365,55;1,25
1363,62;1,91
1361,69;2,97
1359,76;3,95
1357,83;4,63
1355,90;5,03
1353,97;5,25
1352,04;5,46
1350,11;5,76
1348,18;6,13
1346,25;6,47
1344,32;6,70
1342,39;6,86
1340,46;7,10
1338,53;7,54
1336,60;8,09
1334,67;8,66
1332,74;9,17
1330,81;9,61
1328,88;9,95
1326,95;10,20
1325,02;10,35
1323,09;10,41
1321,16;10,36
1319,23;10,23
1317,30;10,06
1315,37;9,88
1313,44;9,74
1311,51;9,64
1309,58;9,55
1307,65;9,50
1305,72;9,47
1303,79;9,50
1301,86;9,60
1299,93;9,79
1298,00;10,06
1296,07;10,37
1294,14;10,68
1292,21;10,97
1290,28;11,22
1288,35;11,43
1286,42;11,60
1284,49;11,71
1282,56;11,76
1280,63;11,75
1278,70;11,69
1276,77;11,63
1274,84;11,62
1272,91;11,66
1270,98;11,76
1269,05;11,89
1267,12;12,03
1265,19;12,14
1263,26;12,24
1261,33;12,33
1259,40;12,43
1257,47;12,50
1255,54;12,53
1253,61;12,50
1251,68;12,43
1249,75;12,32
1247,82;12,20
1245,89;12,09
1243,96;11,99
1242,03;11,90
1240,10;11,77
1238,17;11,56
1236,24;11,27
1234,31;11,01
1232,38;10,89
1230,45;10,95
1228,52;11,14
1226,59;11,40
1224,66;11,67
1222,73;11,93
1220,80;12,16
1218,87;12,35
1216,94;12,51
1215,01;12,63
1213,08;12,70
1211,15;12,73
1209,22;12,73
1207,29;12,69
1205,36;12,62
1203,43;12,55
1201,50;12,47
1199,57;12,40
1197,64;12,30
1195,71;12,20
1193,78;12,10
1191,85;12,03
1189,92;12,01
1187,99;12,01
1186,06;11,96
1184,13;11,81
1182,20;11,52
1180,27;11,20
1178,34;10,93
1176,41;10,66
1174,48;10,34
1172,55;9,97
1170,62;9,68
1168,69;9,57
1166,76;9,63
1164,83;9,74
1162,90;9,80
1160,97;9,80
1159,04;9,78
1157,11;9,77
1155,18;9,81
1153,25;9,93
1151,32;10,14
1149,39;10,40
1147,46;10,72
1145,53;11,08
1143,60;11,47
1141,67;11,89
1139,74;12,32
1137,81;12,74
1135,88;13,13
1133,95;13,46
1132,02;13,74
1130,09;13,94
1128,16;14,06
1126,23;14,11
1124,30;14,12
1122,37;14,12
1120,44;14,15
1118,51;14,22
1116,58;14,31
1114,65;14,41
1112,72;14,50
1110,79;14,60
1108,86;14,70
1106,93;14,77
1105,00;14,78
1103,07;14,74
1101,14;14,65
1099,21;14,52
1097,28;14,29
1095,35;13,97
1093,42;13,57
1091,49;13,13
1089,56;12,71
1087,63;12,39
1085,70;12,24
1083,77;12,27
1081,84;12,43
1079,91;12,70
1077,98;13,02
1076,05;13,36
1074,12;13,76
1072,19;14,15
1070,26;14,47
1068,33;14,72
1066,40;14,90
1064,47;15,05
1062,54;15,21
1060,61;15,39
1058,68;15,56
1056,75;15,67
1054,82;15,67
1052,89;15,58
1050,96;15,41
1049,03;15,22
1047,10;15,06
1045,17;14,93
1043,24;14,86
1041,31;14,83
1039,38;14,84
1037,45;14,88
1035,52;14,98
1033,59;15,15
1031,66;15,37
1029,73;15,63
1027,80;15,91
1025,87;16,15
1023,94;16,34
1022,01;16,48
1020,08;16,61
1018,15;16,73
1016,22;16,81
1014,29;16,82
1012,36;16,79
1010,43;16,78
1008,50;16,84
1006,57;16,96
1004,64;17,05
1002,71;17,09
1000,78;17,08
998,85;17,07
996,92;17,07
994,99;17,08
993,06;17,11
991,13;17,11
989,20;17,09
987,27;17,03
985,34;16,94
983,41;16,82
981,48;16,66
979,55;16,48
977,62;16,27
975,69;16,05
973,76;15,86
971,83;15,69
969,90;15,57
967,97;15,49
966,04;15,50
964,11;15,61
962,18;15,82
960,25;16,05
958,32;16,24
956,39;16,37
954,46;16,46
952,53;16,57
950,60;16,72
948,67;16,86
946,74;16,97
944,81;17,05
942,88;17,12
940,95;17,14
939,02;17,13
937,09;17,10
935,16;17,07
933,23;17,07
931,30;17,09
929,37;17,10
927,44;17,09
925,51;17,02
923,58;16,90
921,65;16,71
919,72;16,53
917,79;16,48
915,86;16,60
913,93;16,74
912,00;16,79
910,07;16,75
908,14;16,65
906,21;16,51
904,28;16,33
902,35;16,06
900,42;15,69
898,49;15,23
896,56;14,71
894,63;14,19
892,70;13,71
890,77;13,33
888,84;13,10
886,91;13,03
884,98;13,03
883,05;13,03
881,12;13,00
879,19;12,98
877,26;12,98
875,33;12,94
873,40;12,87
871,47;12,75
869,54;12,59
867,61;12,41
865,68;12,23
863,75;12,05
861,82;11,91
859,89;11,79
857,96;11,66
856,03;11,52
854,10;11,36
852,17;11,19
850,24;11,00
848,31;10,82
846,38;10,68
844,45;10,57
842,52;10,48
840,59;10,40
838,66;10,29
836,73;10,12
834,80;9,92
832,87;9,73
830,94;9,55
829,01;9,37
827,08;9,17
825,15;8,93
823,22;8,69
821,29;8,46
819,36;8,24
817,43;8,05
815,50;7,89
813,57;7,80
811,64;7,73
809,71;7,65
807,78;7,53
805,85;7,42
803,92;7,38
801,99;7,42
800,06;7,45
798,13;7,42
796,20;7,32
794,27;7,19
792,34;7,06
790,41;6,90
788,48;6,70
786,55;6,47
784,62;6,20
782,69;5,92
780,76;5,69
778,83;5,52
776,90;5,35
774,97;5,18
773,04;5,00
771,11;4,83
769,18;4,70
767,25;4,61
765,32;4,58
763,39;4,57
761,46;4,56
759,53;4,49
757,60;4,38
755,67;4,24
753,74;4,09
751,81;3,94
749,88;3,81
747,95;3,69
746,02;3,56
744,09;3,39
742,16;3,20
740,23;3,03
738,30;2,92
736,37;2,82
734,44;2,71
732,51;2,54
730,58;2,30
728,65;2,00
726,72;1,72
724,79;1,47
722,86;1,31
720,93;1,33
719,00;1,63
717,07;2,09
715,14;2,57
713,21;3,00
711,28;3,36
709,35;3,66
707,42;3,90
705,49;4,08
703,56;4,19
701,63;4,25
699,70;4,27
697,77;4,33
695,84;4,46
693,91;4,60
691,98;4,72
690,05;4,81
688,12;4,87
686,19;4,92
684,26;4,96
682,33;4,98
680,40;4,98
678,47;4,98
676,54;4,96
674,61;4,98
672,68;4,97
670,75;4,98
668,82;4,98
666,89;4,96
664,96;4,93
663,03;4,91
661,10;4,86
659,17;4,84
657,24;4,85
655,31;4,89
653,38;4,93
651,45;4,95
649,52;4,97
647,59;5,00
645,66;5,04
643,73;5,08
641,80;5,11
639,87;5,12
637,94;5,13
636,01;5,15
634,08;5,17
632,15;5,17
630,22;5,18
628,29;5,19
626,36;5,20
624,43;5,22
622,50;5,25
620,57;5,25
618,64;5,26
616,71;5,27
614,78;5,30
612,85;5,31
610,92;5,32
608,99;5,33
607,06;5,34
605,13;5,34
603,20;5,35
601,27;5,38
599,34;5,41
597,41;5,45
595,48;5,50
593,55;5,54
591,62;5,57
589,69;5,60
587,76;5,64
585,83;5,68
583,90;5,71
581,97;5,74
580,04;5,76
578,11;5,80
576,18;5,82
574,25;5,85
572,32;5,87
570,39;5,89
568,46;5,91
566,53;5,94
564,60;5,99
562,67;6,04
560,74;6,09
558,81;6,14
556,88;6,17
554,95;6,22
553,02;6,27
551,09;6,31
549,16;6,34
547,23;6,40
545,30;6,46
543,37;6,52
541,44;6,56
539,51;6,60
537,58;6,67
535,65;6,75
533,72;6,82
531,79;6,88
529,86;6,93
527,93;6,99
526,00;7,04
524,07;7,10
522,14;7,16
520,21;7,23
518,28;7,30
516,35;7,38
514,42;7,46
512,49;7,54
510,56;7,62
508,63;7,70
506,70;7,79
504,77;7,86
502,84;7,95
500,91;8,03
