Created as New Dataset;Amostra 398 por Laboratório data segunda-feira, setembro 23 2024
cm-1;%T
4000,00;10,28
3998,07;10,28
3996,14;10,29
3994,21;10,30
3992,28;10,32
3990,35;10,33
3988,42;10,35
3986,49;10,36
3984,56;10,38
3982,63;10,39
3980,70;10,41
3978,77;10,42
3976,84;10,44
3974,91;10,45
3972,98;10,46
3971,05;10,46
3969,12;10,47
3967,19;10,48
3965,26;10,48
3963,33;10,48
3961,40;10,49
3959,47;10,49
3957,54;10,49
3955,61;10,49
3953,68;10,49
3951,75;10,49
3949,82;10,49
3947,89;10,48
3945,96;10,48
3944,03;10,47
3942,10;10,47
3940,17;10,47
3938,24;10,46
3936,31;10,46
3934,38;10,45
3932,45;10,45
3930,52;10,45
3928,59;10,44
3926,66;10,44
3924,73;10,43
3922,80;10,42
3920,87;10,42
3918,94;10,41
3917,01;10,40
3915,08;10,39
3913,15;10,38
3911,22;10,37
3909,29;10,36
3907,36;10,35
3905,43;10,35
3903,50;10,35
3901,57;10,34
3899,64;10,32
3897,71;10,31
3895,78;10,30
3893,85;10,29
3891,92;10,28
3889,99;10,27
3888,06;10,26
3886,13;10,25
3884,20;10,24
3882,27;10,23
3880,34;10,22
3878,41;10,21
3876,48;10,20
3874,55;10,18
3872,62;10,18
3870,69;10,17
3868,76;10,15
3866,83;10,14
3864,90;10,13
3862,97;10,12
3861,04;10,10
3859,11;10,08
3857,18;10,07
3855,25;10,05
3853,32;10,04
3851,39;10,02
3849,46;10,00
3847,53;9,98
3845,60;9,97
3843,67;9,96
3841,74;9,94
3839,81;9,93
3837,88;9,90
3835,95;9,88
3834,02;9,86
3832,09;9,85
3830,16;9,83
3828,23;9,81
3826,30;9,79
3824,37;9,77
3822,44;9,76
3820,51;9,74
3818,58;9,72
3816,65;9,70
3814,72;9,68
3812,79;9,66
3810,86;9,64
3808,93;9,63
3807,00;9,61
3805,07;9,59
3803,14;9,57
3801,21;9,55
3799,28;9,53
3797,35;9,51
3795,42;9,49
3793,49;9,46
3791,56;9,44
3789,63;9,41
3787,70;9,39
3785,77;9,37
3783,84;9,34
3781,91;9,32
3779,98;9,30
3778,05;9,27
3776,12;9,25
3774,19;9,22
3772,26;9,20
3770,33;9,18
3768,40;9,15
3766,47;9,12
3764,54;9,09
3762,61;9,06
3760,68;9,03
3758,75;9,00
3756,82;8,97
3754,89;8,94
3752,96;8,91
3751,03;8,88
3749,10;8,85
3747,17;8,81
3745,24;8,77
3743,31;8,73
3741,38;8,70
3739,45;8,66
3737,52;8,62
3735,59;8,59
3733,66;8,54
3731,73;8,50
3729,80;8,45
3727,87;8,41
3725,94;8,36
3724,01;8,32
3722,08;8,27
3720,15;8,22
3718,22;8,17
3716,29;8,12
3714,36;8,06
3712,43;8,00
3710,50;7,94
3708,57;7,87
3706,64;7,81
3704,71;7,73
3702,78;7,66
3700,85;7,58
3698,92;7,49
3696,99;7,40
3695,06;7,30
3693,13;7,21
3691,20;7,12
3689,27;7,04
3687,34;6,97
3685,41;6,91
3683,48;6,84
3681,55;6,77
3679,62;6,69
3677,69;6,62
3675,76;6,54
3673,83;6,46
3671,90;6,38
3669,97;6,30
3668,04;6,22
3666,11;6,14
3664,18;6,05
3662,25;5,95
3660,32;5,86
3658,39;5,77
3656,46;5,67
3654,53;5,57
3652,60;5,46
3650,67;5,36
3648,74;5,27
3646,81;5,19
3644,88;5,12
3642,95;5,05
3641,02;4,98
3639,09;4,93
3637,16;4,88
3635,23;4,84
3633,30;4,80
3631,37;4,76
3629,44;4,72
3627,51;4,69
3625,58;4,65
3623,65;4,60
3621,72;4,54
3619,79;4,49
3617,86;4,44
3615,93;4,40
3614,00;4,35
3612,07;4,30
3610,14;4,25
3608,21;4,20
3606,28;4,16
3604,35;4,11
3602,42;4,07
3600,49;4,04
3598,56;4,00
3596,63;3,97
3594,70;3,94
3592,77;3,90
3590,84;3,86
3588,91;3,81
3586,98;3,76
3585,05;3,72
3583,12;3,68
3581,19;3,63
3579,26;3,59
3577,33;3,54
3575,40;3,50
3573,47;3,45
3571,54;3,40
3569,61;3,36
3567,68;3,32
3565,75;3,28
3563,82;3,24
3561,89;3,20
3559,96;3,15
3558,03;3,12
3556,10;3,08
3554,17;3,04
3552,24;3,00
3550,31;2,96
3548,38;2,92
3546,45;2,88
3544,52;2,85
3542,59;2,82
3540,66;2,79
3538,73;2,76
3536,80;2,72
3534,87;2,69
3532,94;2,67
3531,01;2,64
3529,08;2,62
3527,15;2,59
3525,22;2,57
3523,29;2,55
3521,36;2,54
3519,43;2,52
3517,50;2,50
3515,57;2,49
3513,64;2,47
3511,71;2,46
3509,78;2,44
3507,85;2,43
3505,92;2,42
3503,99;2,41
3502,06;2,40
3500,13;2,38
3498,20;2,37
3496,27;2,35
3494,34;2,34
3492,41;2,32
3490,48;2,30
3488,55;2,29
3486,62;2,27
3484,69;2,25
3482,76;2,22
3480,83;2,20
3478,90;2,18
3476,97;2,16
3475,04;2,15
3473,11;2,13
3471,18;2,12
3469,25;2,12
3467,32;2,11
3465,39;2,11
3463,46;2,11
3461,53;2,11
3459,60;2,12
3457,67;2,12
3455,74;2,12
3453,81;2,12
3451,88;2,13
3449,95;2,13
3448,02;2,13
3446,09;2,14
3444,16;2,14
3442,23;2,14
3440,30;2,15
3438,37;2,15
3436,44;2,15
3434,51;2,15
3432,58;2,16
3430,65;2,16
3428,72;2,17
3426,79;2,17
3424,86;2,18
3422,93;2,18
3421,00;2,18
3419,07;2,19
3417,14;2,20
3415,21;2,20
3413,28;2,21
3411,35;2,22
3409,42;2,22
3407,49;2,23
3405,56;2,24
3403,63;2,25
3401,70;2,26
3399,77;2,27
3397,84;2,28
3395,91;2,29
3393,98;2,31
3392,05;2,32
3390,12;2,33
3388,19;2,35
3386,26;2,37
3384,33;2,39
3382,40;2,41
3380,47;2,43
3378,54;2,45
3376,61;2,47
3374,68;2,49
3372,75;2,51
3370,82;2,53
3368,89;2,56
3366,96;2,58
3365,03;2,61
3363,10;2,64
3361,17;2,67
3359,24;2,69
3357,31;2,72
3355,38;2,75
3353,45;2,78
3351,52;2,81
3349,59;2,84
3347,66;2,87
3345,73;2,90
3343,80;2,93
3341,87;2,96
3339,94;3,00
3338,01;3,03
3336,08;3,06
3334,15;3,09
3332,22;3,13
3330,29;3,16
3328,36;3,19
3326,43;3,23
3324,50;3,26
3322,57;3,29
3320,64;3,33
3318,71;3,36
3316,78;3,39
3314,85;3,42
3312,92;3,45
3310,99;3,48
3309,06;3,51
3307,13;3,54
3305,20;3,57
3303,27;3,60
3301,34;3,63
3299,41;3,66
3297,48;3,69
3295,55;3,72
3293,62;3,75
3291,69;3,78
3289,76;3,81
3287,83;3,84
3285,90;3,87
3283,97;3,90
3282,04;3,93
3280,11;3,96
3278,18;3,99
3276,25;4,02
3274,32;4,05
3272,39;4,08
3270,46;4,11
3268,53;4,14
3266,60;4,17
3264,67;4,20
3262,74;4,23
3260,81;4,26
3258,88;4,29
3256,95;4,33
3255,02;4,36
3253,09;4,40
3251,16;4,43
3249,23;4,46
3247,30;4,50
3245,37;4,53
3243,44;4,57
3241,51;4,61
3239,58;4,65
3237,65;4,69
3235,72;4,73
3233,79;4,77
3231,86;4,81
3229,93;4,85
3228,00;4,89
3226,07;4,94
3224,14;4,98
3222,21;5,02
3220,28;5,07
3218,35;5,11
3216,42;5,16
3214,49;5,20
3212,56;5,25
3210,63;5,29
3208,70;5,34
3206,77;5,39
3204,84;5,44
3202,91;5,49
3200,98;5,55
3199,05;5,60
3197,12;5,66
3195,19;5,73
3193,26;5,79
3191,33;5,86
3189,40;5,93
3187,47;6,01
3185,54;6,09
3183,61;6,17
3181,68;6,26
3179,75;6,35
3177,82;6,44
3175,89;6,54
3173,96;6,64
3172,03;6,74
3170,10;6,85
3168,17;6,96
3166,24;7,07
3164,31;7,18
3162,38;7,30
3160,45;7,42
3158,52;7,54
3156,59;7,67
3154,66;7,79
3152,73;7,92
3150,80;8,05
3148,87;8,19
3146,94;8,32
3145,01;8,46
3143,08;8,59
3141,15;8,73
3139,22;8,87
3137,29;9,01
3135,36;9,15
3133,43;9,29
3131,50;9,43
3129,57;9,56
3127,64;9,70
3125,71;9,84
3123,78;9,97
3121,85;10,11
3119,92;10,24
3117,99;10,37
3116,06;10,50
3114,13;10,63
3112,20;10,76
3110,27;10,88
3108,34;10,99
3106,41;11,11
3104,48;11,22
3102,55;11,32
3100,62;11,43
3098,69;11,53
3096,76;11,63
3094,83;11,72
3092,90;11,80
3090,97;11,86
3089,04;11,92
3087,11;11,96
3085,18;12,00
3083,25;12,01
3081,32;12,02
3079,39;12,01
3077,46;11,98
3075,53;11,94
3073,60;11,89
3071,67;11,83
3069,74;11,78
3067,81;11,73
3065,88;11,69
3063,95;11,67
3062,02;11,65
3060,09;11,65
3058,16;11,64
3056,23;11,62
3054,30;11,58
3052,37;11,53
3050,44;11,45
3048,51;11,36
3046,58;11,24
3044,65;11,10
3042,72;10,94
3040,79;10,77
3038,86;10,56
3036,93;10,32
3035,00;10,03
3033,07;9,70
3031,14;9,32
3029,21;8,89
3027,28;8,40
3025,35;7,85
3023,42;7,23
3021,49;6,53
3019,56;5,78
3017,63;5,00
3015,70;4,23
3013,77;3,54
3011,84;2,95
3009,91;2,50
3007,98;2,18
3006,05;1,95
3004,12;1,81
3002,19;1,71
3000,26;1,63
2998,33;1,54
2996,40;1,40
2994,47;1,23
2992,54;1,02
2990,61;0,81
2988,68;0,60
2986,75;0,42
2984,82;0,28
2982,89;0,17
2980,96;0,10
2979,03;0,05
2977,10;0,03
2975,17;0,02
2973,24;0,02
2971,31;0,02
2969,38;0,01
2967,45;0,01
2965,52;0,01
2963,59;0,01
2961,66;0,01
2959,73;0,01
2957,80;0,01
2955,87;0,01
2953,94;0,01
2952,01;0,01
2950,08;0,00
2948,15;0,00
2946,22;0,00
2944,29;0,00
2942,36;0,00
2940,43;0,00
2938,50;0,00
2936,57;0,00
2934,64;0,00
2932,71;0,00
2930,78;0,00
2928,85;0,00
2926,92;0,00
2924,99;0,00
2923,06;0,00
2921,13;0,00
2919,20;0,00
2917,27;0,00
2915,34;0,00
2913,41;0,00
2911,48;0,00
2909,55;0,00
2907,62;0,00
2905,69;0,00
2903,76;0,00
2901,83;0,00
2899,90;0,00
2897,97;0,00
2896,04;0,00
2894,11;0,00
2892,18;0,00
2890,25;0,00
2888,32;0,00
2886,39;0,00
2884,46;0,00
2882,53;0,00
2880,60;0,00
2878,67;0,00
2876,74;0,00
2874,81;0,00
2872,88;0,00
2870,95;0,00
2869,02;0,01
2867,09;0,01
2865,16;0,01
2863,23;0,01
2861,30;0,01
2859,37;0,01
2857,44;0,01
2855,51;0,01
2853,58;0,01
2851,65;0,01
2849,72;0,01
2847,79;0,01
2845,86;0,01
2843,93;0,01
2842,00;0,01
2840,07;0,01
2838,14;0,01
2836,21;0,03
2834,28;0,07
2832,35;0,15
2830,42;0,28
2828,49;0,47
2826,56;0,71
2824,63;1,00
2822,70;1,34
2820,77;1,72
2818,84;2,13
2816,91;2,57
2814,98;3,04
2813,05;3,53
2811,12;4,05
2809,19;4,59
2807,26;5,14
2805,33;5,71
2803,40;6,28
2801,47;6,85
2799,54;7,42
2797,61;8,00
2795,68;8,58
2793,75;9,16
2791,82;9,75
2789,89;10,34
2787,96;10,94
2786,03;11,55
2784,10;12,17
2782,17;12,79
2780,24;13,39
2778,31;13,98
2776,38;14,53
2774,45;15,04
2772,52;15,50
2770,59;15,92
2768,66;16,29
2766,73;16,61
2764,80;16,88
2762,87;17,10
2760,94;17,29
2759,01;17,45
2757,08;17,60
2755,15;17,74
2753,22;17,85
2751,29;17,93
2749,36;17,98
2747,43;17,99
2745,50;17,96
2743,57;17,89
2741,64;17,76
2739,71;17,58
2737,78;17,33
2735,85;17,03
2733,92;16,69
2731,99;16,39
2730,06;16,21
2728,13;16,19
2726,20;16,31
2724,27;16,51
2722,34;16,75
2720,41;17,01
2718,48;17,29
2716,55;17,61
2714,62;17,98
2712,69;18,36
2710,76;18,73
2708,83;19,04
2706,90;19,29
2704,97;19,47
2703,04;19,59
2701,11;19,65
2699,18;19,66
2697,25;19,61
2695,32;19,52
2693,39;19,40
2691,46;19,26
2689,53;19,11
2687,60;18,99
2685,67;18,89
2683,74;18,82
2681,81;18,78
2679,88;18,76
2677,95;18,76
2676,02;18,76
2674,09;18,78
2672,16;18,82
2670,23;18,89
2668,30;19,02
2666,37;19,21
2664,44;19,43
2662,51;19,68
2660,58;19,94
2658,65;20,20
2656,72;20,45
2654,79;20,69
2652,86;20,90
2650,93;21,10
2649,00;21,27
2647,07;21,44
2645,14;21,59
2643,21;21,72
2641,28;21,86
2639,35;21,98
2637,42;22,10
2635,49;22,22
2633,56;22,33
2631,63;22,45
2629,70;22,57
2627,77;22,69
2625,84;22,82
2623,91;22,94
2621,98;23,07
2620,05;23,19
2618,12;23,31
2616,19;23,42
2614,26;23,53
2612,33;23,65
2610,40;23,78
2608,47;23,90
2606,54;24,04
2604,61;24,18
2602,68;24,33
2600,75;24,49
2598,82;24,65
2596,89;24,83
2594,96;25,01
2593,03;25,20
2591,10;25,39
2589,17;25,59
2587,24;25,80
2585,31;26,02
2583,38;26,24
2581,45;26,46
2579,52;26,69
2577,59;26,93
2575,66;27,16
2573,73;27,39
2571,80;27,62
2569,87;27,85
2567,94;28,06
2566,01;28,27
2564,08;28,46
2562,15;28,64
2560,22;28,81
2558,29;28,97
2556,36;29,11
2554,43;29,25
2552,50;29,37
2550,57;29,49
2548,64;29,59
2546,71;29,69
2544,78;29,78
2542,85;29,87
2540,92;29,95
2538,99;30,02
2537,06;30,10
2535,13;30,17
2533,20;30,24
2531,27;30,33
2529,34;30,43
2527,41;30,54
2525,48;30,66
2523,55;30,78
2521,62;30,91
2519,69;31,03
2517,76;31,15
2515,83;31,26
2513,90;31,38
2511,97;31,49
2510,04;31,60
2508,11;31,70
2506,18;31,79
2504,25;31,88
2502,32;31,97
2500,39;32,04
2498,46;32,12
2496,53;32,19
2494,60;32,25
2492,67;32,31
2490,74;32,37
2488,81;32,42
2486,88;32,47
2484,95;32,52
2483,02;32,56
2481,09;32,59
2479,16;32,63
2477,23;32,66
2475,30;32,69
2473,37;32,72
2471,44;32,75
2469,51;32,77
2467,58;32,78
2465,65;32,80
2463,72;32,81
2461,79;32,81
2459,86;32,82
2457,93;32,82
2456,00;32,81
2454,07;32,81
2452,14;32,80
2450,21;32,79
2448,28;32,78
2446,35;32,77
2444,42;32,75
2442,49;32,73
2440,56;32,71
2438,63;32,69
2436,70;32,67
2434,77;32,64
2432,84;32,61
2430,91;32,59
2428,98;32,56
2427,05;32,53
2425,12;32,50
2423,19;32,46
2421,26;32,43
2419,33;32,39
2417,40;32,35
2415,47;32,31
2413,54;32,28
2411,61;32,24
2409,68;32,22
2407,75;32,19
2405,82;32,17
2403,89;32,15
2401,96;32,14
2400,03;32,12
2398,10;32,12
2396,17;32,12
2394,24;32,12
2392,31;32,12
2390,38;32,11
2388,45;32,11
2386,52;32,10
2384,59;32,10
2382,66;32,09
2380,73;32,08
2378,80;32,07
2376,87;32,06
2374,94;32,03
2373,01;31,91
2371,08;31,82
2369,15;31,79
2367,22;31,76
2365,29;31,72
2363,36;31,68
2361,43;31,64
2359,50;31,59
2357,57;31,55
2355,64;31,51
2353,71;31,48
2351,78;31,44
2349,85;31,44
2347,92;31,45
2345,99;31,41
2344,06;31,37
2342,13;31,33
2340,20;31,23
2338,27;31,05
2336,34;30,89
2334,41;30,90
2332,48;31,07
2330,55;31,23
2328,62;31,33
2326,69;31,37
2324,76;31,37
2322,83;31,38
2320,90;31,42
2318,97;31,48
2317,04;31,52
2315,11;31,54
2313,18;31,58
2311,25;31,62
2309,32;31,67
2307,39;31,72
2305,46;31,77
2303,53;31,81
2301,60;31,86
2299,67;31,89
2297,74;31,93
2295,81;31,97
2293,88;32,01
2291,95;32,05
2290,02;32,09
2288,09;32,13
2286,16;32,16
2284,23;32,20
2282,30;32,24
2280,37;32,28
2278,44;32,32
2276,51;32,37
2274,58;32,41
2272,65;32,44
2270,72;32,47
2268,79;32,50
2266,86;32,53
2264,93;32,56
2263,00;32,59
2261,07;32,62
2259,14;32,65
2257,21;32,67
2255,28;32,70
2253,35;32,72
2251,42;32,74
2249,49;32,75
2247,56;32,77
2245,63;32,79
2243,70;32,81
2241,77;32,83
2239,84;32,84
2237,91;32,85
2235,98;32,86
2234,05;32,87
2232,12;32,88
2230,19;32,88
2228,26;32,88
2226,33;32,89
2224,40;32,89
2222,47;32,89
2220,54;32,89
2218,61;32,88
2216,68;32,88
2214,75;32,87
2212,82;32,87
2210,89;32,86
2208,96;32,85
2207,03;32,85
2205,10;32,84
2203,17;32,83
2201,24;32,82
2199,31;32,81
2197,38;32,79
2195,45;32,77
2193,52;32,76
2191,59;32,74
2189,66;32,72
2187,73;32,70
2185,80;32,69
2183,87;32,68
2181,94;32,68
2180,01;32,68
2178,08;32,68
2176,15;32,68
2174,22;32,69
2172,29;32,70
2170,36;32,71
2168,43;32,72
2166,50;32,73
2164,57;32,74
2162,64;32,75
2160,71;32,76
2158,78;32,78
2156,85;32,79
2154,92;32,81
2152,99;32,84
2151,06;32,88
2149,13;32,94
2147,20;33,00
2145,27;33,09
2143,34;33,17
2141,41;33,26
2139,48;33,33
2137,55;33,41
2135,62;33,47
2133,69;33,53
2131,76;33,57
2129,83;33,62
2127,90;33,66
2125,97;33,71
2124,04;33,75
2122,11;33,79
2120,18;33,82
2118,25;33,86
2116,32;33,89
2114,39;33,93
2112,46;33,96
2110,53;34,00
2108,60;34,03
2106,67;34,07
2104,74;34,10
2102,81;34,14
2100,88;34,17
2098,95;34,21
2097,02;34,24
2095,09;34,27
2093,16;34,30
2091,23;34,33
2089,30;34,37
2087,37;34,39
2085,44;34,42
2083,51;34,45
2081,58;34,48
2079,65;34,50
2077,72;34,53
2075,79;34,56
2073,86;34,58
2071,93;34,60
2070,00;34,63
2068,07;34,64
2066,14;34,67
2064,21;34,69
2062,28;34,70
2060,35;34,71
2058,42;34,72
2056,49;34,73
2054,56;34,74
2052,63;34,75
2050,70;34,76
2048,77;34,76
2046,84;34,77
2044,91;34,77
2042,98;34,78
2041,05;34,79
2039,12;34,79
2037,19;34,79
2035,26;34,81
2033,33;34,83
2031,40;34,86
2029,47;34,90
2027,54;34,95
2025,61;35,02
2023,68;35,10
2021,75;35,22
2019,82;35,35
2017,89;35,53
2015,96;35,71
2014,03;35,87
2012,10;36,02
2010,17;36,16
2008,24;36,29
2006,31;36,41
2004,38;36,50
2002,45;36,59
2000,52;36,66
1998,59;36,73
1996,66;36,80
1994,73;36,85
1992,80;36,94
1990,87;37,01
1988,94;37,04
1987,01;37,08
1985,08;37,11
1983,15;37,15
1981,22;37,19
1979,29;37,22
1977,36;37,26
1975,43;37,29
1973,50;37,32
1971,57;37,34
1969,64;37,36
1967,71;37,41
1965,78;37,45
1963,85;37,44
1961,92;37,45
1959,99;37,46
1958,06;37,47
1956,13;37,49
1954,20;37,50
1952,27;37,50
1950,34;37,49
1948,41;37,50
1946,48;37,54
1944,55;37,53
1942,62;37,59
1940,69;37,57
1938,76;37,53
1936,83;37,54
1934,90;37,57
1932,97;37,62
1931,04;37,64
1929,11;37,66
1927,18;37,68
1925,25;37,69
1923,32;37,84
1921,39;37,88
1919,46;37,80
1917,53;37,85
1915,60;37,79
1913,67;37,74
1911,74;37,73
1909,81;37,77
1907,88;37,78
1905,95;37,77
1904,02;37,76
1902,09;37,75
1900,16;37,75
1898,23;37,74
1896,30;37,75
1894,37;37,80
1892,44;37,75
1890,51;37,75
1888,58;37,78
1886,65;37,71
1884,72;37,67
1882,79;37,65
1880,86;37,62
1878,93;37,60
1877,00;37,56
1875,07;37,56
1873,14;37,59
1871,21;37,50
1869,28;37,61
1867,35;37,65
1865,42;37,54
1863,49;37,44
1861,56;37,40
1859,63;37,36
1857,70;37,32
1855,77;37,25
1853,84;37,20
1851,91;37,11
1849,98;37,15
1848,05;37,26
1846,12;37,08
1844,19;37,04
1842,26;36,91
1840,33;36,68
1838,40;36,54
1836,47;36,43
1834,54;36,35
1832,61;36,14
1830,68;36,10
1828,75;36,09
1826,82;35,81
1824,89;35,66
1822,96;35,44
1821,03;35,20
1819,10;34,96
1817,17;34,74
1815,24;34,49
1813,31;34,24
1811,38;34,01
1809,45;33,74
1807,52;33,40
1805,59;33,07
1803,66;32,67
1801,73;32,30
1799,80;31,86
1797,87;31,47
1795,94;31,05
1794,01;30,50
1792,08;29,99
1790,15;29,41
1788,22;28,73
1786,29;28,03
1784,36;27,36
1782,43;26,60
1780,50;25,82
1778,57;24,97
1776,64;24,16
1774,71;23,11
1772,78;22,04
1770,85;20,70
1768,92;19,06
1766,99;17,24
1765,06;15,14
1763,13;12,64
1761,20;9,64
1759,27;6,54
1757,34;3,77
1755,41;1,67
1753,48;0,59
1751,55;0,15
1749,62;0,03
1747,69;0,01
1745,76;0,01
1743,83;0,01
1741,90;0,01
1739,97;0,02
1738,04;0,08
1736,11;0,20
1734,18;0,53
1732,25;1,05
1730,32;1,68
1728,39;2,44
1726,46;3,27
1724,53;4,15
1722,60;5,11
1720,67;6,00
1718,74;6,92
1716,81;7,92
1714,88;8,70
1712,95;9,29
1711,02;9,74
1709,09;10,11
1707,16;10,40
1705,23;10,86
1703,30;11,16
1701,37;11,41
1699,44;12,03
1697,51;12,31
1695,58;12,65
1693,65;12,97
1691,72;13,15
1689,79;13,48
1687,86;13,72
1685,93;13,70
1684,00;13,85
1682,07;13,83
1680,14;13,80
1678,21;13,74
1676,28;13,58
1674,35;13,54
1672,42;13,41
1670,49;13,25
1668,56;13,09
1666,63;12,90
1664,70;12,68
1662,77;12,47
1660,84;12,20
1658,91;12,04
1656,98;12,09
1655,05;11,91
1653,12;11,94
1651,19;12,06
1649,26;12,14
1647,33;12,31
1645,40;12,50
1643,47;12,61
1641,54;12,75
1639,61;13,00
1637,68;13,17
1635,75;13,32
1633,82;13,42
1631,89;13,46
1629,96;13,66
1628,03;14,11
1626,10;14,59
1624,17;15,03
1622,24;15,57
1620,31;15,98
1618,38;16,16
1616,45;16,41
1614,52;16,62
1612,59;16,75
1610,66;16,97
1608,73;17,22
1606,80;17,47
1604,87;17,73
1602,94;18,00
1601,01;18,28
1599,08;18,63
1597,15;19,07
1595,22;19,55
1593,29;19,98
1591,36;20,36
1589,43;20,73
1587,50;21,08
1585,57;21,39
1583,64;21,63
1581,71;21,92
1579,78;22,28
1577,85;22,43
1575,92;22,72
1573,99;23,07
1572,06;23,21
1570,13;23,49
1568,20;23,79
1566,27;23,94
1564,34;24,48
1562,41;24,84
1560,48;24,91
1558,55;25,42
1556,62;25,41
1554,69;25,31
1552,76;25,44
1550,83;25,64
1548,90;25,97
1546,97;26,17
1545,04;26,55
1543,11;26,94
1541,18;27,15
1539,25;27,16
1537,32;27,12
1535,39;26,98
1533,46;27,03
1531,53;26,95
1529,60;26,77
1527,67;26,54
1525,74;26,39
1523,81;26,05
1521,88;25,47
1519,95;24,78
1518,02;24,09
1516,09;23,53
1514,16;23,05
1512,23;22,85
1510,30;22,92
1508,37;22,87
1506,44;22,45
1504,51;21,72
1502,58;21,07
1500,65;20,49
1498,72;19,78
1496,79;18,74
1494,86;17,53
1492,93;16,18
1491,00;14,66
1489,07;12,98
1487,14;11,28
1485,21;9,57
1483,28;7,77
1481,35;5,92
1479,42;4,22
1477,49;2,86
1475,56;1,76
1473,63;0,91
1471,70;0,31
1469,77;0,07
1467,84;0,01
1465,91;0,01
1463,98;0,00
1462,05;0,01
1460,12;0,00
1458,19;0,01
1456,26;0,00
1454,33;0,01
1452,40;0,02
1450,47;0,05
1448,54;0,08
1446,61;0,14
1444,68;0,21
1442,75;0,34
1440,82;0,50
1438,89;0,73
1436,96;1,07
1435,03;1,60
1433,10;2,29
1431,17;3,25
1429,24;4,41
1427,31;5,46
1425,38;6,23
1423,45;6,72
1421,52;6,86
1419,59;6,85
1417,66;6,98
1415,73;7,37
1413,80;8,04
1411,87;8,81
1409,94;9,43
1408,01;9,72
1406,08;9,64
1404,15;9,35
1402,22;9,01
1400,29;8,65
1398,36;8,15
1396,43;7,43
1394,50;6,47
1392,57;5,45
1390,64;4,50
1388,71;3,52
1386,78;2,55
1384,85;1,73
1382,92;1,10
1380,99;0,60
1379,06;0,28
1377,13;0,19
1375,20;0,32
1373,27;0,67
1371,34;1,05
1369,41;1,26
1367,48;1,28
1365,55;1,41
1363,62;1,86
1361,69;2,49
1359,76;2,99
1357,83;3,30
1355,90;3,46
1353,97;3,58
1352,04;3,74
1350,11;4,03
1348,18;4,44
1346,25;4,87
1344,32;5,24
1342,39;5,56
1340,46;5,96
1338,53;6,51
1336,60;7,10
1334,67;7,63
1332,74;8,07
1330,81;8,40
1328,88;8,58
1326,95;8,58
1325,02;8,40
1323,09;8,13
1321,16;7,81
1319,23;7,51
1317,30;7,25
1315,37;7,04
1313,44;6,88
1311,51;6,75
1309,58;6,62
1307,65;6,48
1305,72;6,35
1303,79;6,24
1301,86;6,19
1299,93;6,20
1298,00;6,24
1296,07;6,28
1294,14;6,30
1292,21;6,30
1290,28;6,29
1288,35;6,24
1286,42;6,11
1284,49;5,93
1282,56;5,73
1280,63;5,57
1278,70;5,47
1276,77;5,42
1274,84;5,40
1272,91;5,37
1270,98;5,30
1269,05;5,19
1267,12;5,06
1265,19;4,92
1263,26;4,76
1261,33;4,60
1259,40;4,42
1257,47;4,24
1255,54;4,05
1253,61;3,84
1251,68;3,59
1249,75;3,31
1247,82;3,02
1245,89;2,77
1243,96;2,58
1242,03;2,45
1240,10;2,38
1238,17;2,36
1236,24;2,37
1234,31;2,40
1232,38;2,47
1230,45;2,58
1228,52;2,71
1226,59;2,85
1224,66;2,98
1222,73;3,11
1220,80;3,21
1218,87;3,29
1216,94;3,33
1215,01;3,33
1213,08;3,30
1211,15;3,25
1209,22;3,18
1207,29;3,09
1205,36;2,97
1203,43;2,83
1201,50;2,68
1199,57;2,53
1197,64;2,35
1195,71;2,17
1193,78;1,98
1191,85;1,79
1189,92;1,61
1187,99;1,45
1186,06;1,31
1184,13;1,17
1182,20;1,05
1180,27;0,95
1178,34;0,86
1176,41;0,77
1174,48;0,70
1172,55;0,64
1170,62;0,58
1168,69;0,54
1166,76;0,51
1164,83;0,48
1162,90;0,46
1160,97;0,45
1159,04;0,44
1157,11;0,44
1155,18;0,46
1153,25;0,48
1151,32;0,52
1149,39;0,58
1147,46;0,64
1145,53;0,71
1143,60;0,80
1141,67;0,92
1139,74;1,10
1137,81;1,34
1135,88;1,65
1133,95;2,01
1132,02;2,36
1130,09;2,67
1128,16;2,85
1126,23;2,89
1124,30;2,81
1122,37;2,69
1120,44;2,61
1118,51;2,64
1116,58;2,78
1114,65;3,01
1112,72;3,30
1110,79;3,61
1108,86;3,92
1106,93;4,18
1105,00;4,38
1103,07;4,47
1101,14;4,44
1099,21;4,34
1097,28;4,21
1095,35;4,12
1093,42;4,10
1091,49;4,16
1089,56;4,29
1087,63;4,46
1085,70;4,67
1083,77;4,91
1081,84;5,19
1079,91;5,55
1077,98;5,94
1076,05;6,31
1074,12;6,66
1072,19;6,95
1070,26;7,14
1068,33;7,27
1066,40;7,40
1064,47;7,53
1062,54;7,70
1060,61;7,89
1058,68;8,12
1056,75;8,41
1054,82;8,82
1052,89;9,40
1050,96;10,13
1049,03;10,95
1047,10;11,75
1045,17;12,39
1043,24;12,80
1041,31;12,97
1039,38;12,93
1037,45;12,75
1035,52;12,51
1033,59;12,22
1031,66;11,88
1029,73;11,50
1027,80;11,12
1025,87;10,76
1023,94;10,45
1022,01;10,21
1020,08;10,05
1018,15;9,98
1016,22;9,98
1014,29;10,07
1012,36;10,23
1010,43;10,44
1008,50;10,70
1006,57;10,96
1004,64;11,12
1002,71;11,15
1000,78;11,09
998,85;11,05
996,92;11,11
994,99;11,30
993,06;11,61
991,13;11,99
989,20;12,38
987,27;12,78
985,34;13,26
983,41;13,83
981,48;14,43
979,55;14,96
977,62;15,33
975,69;15,48
973,76;15,43
971,83;15,21
969,90;14,91
967,97;14,67
966,04;14,67
964,11;15,06
962,18;15,80
960,25;16,61
958,32;17,29
956,39;17,75
954,46;18,02
952,53;18,15
950,60;18,20
948,67;18,15
946,74;18,02
944,81;17,88
942,88;17,76
940,95;17,65
939,02;17,54
937,09;17,46
935,16;17,44
933,23;17,46
931,30;17,53
929,37;17,63
927,44;17,74
925,51;17,81
923,58;17,81
921,65;17,72
919,72;17,62
917,79;17,65
915,86;17,82
913,93;18,04
912,00;18,21
910,07;18,32
908,14;18,41
906,21;18,50
904,28;18,58
902,35;18,59
900,42;18,51
898,49;18,33
896,56;18,07
894,63;17,75
892,70;17,40
890,77;17,10
888,84;17,00
886,91;17,14
884,98;17,42
883,05;17,69
881,12;17,87
879,19;17,97
877,26;18,00
875,33;17,98
873,40;17,93
871,47;17,87
869,54;17,83
867,61;17,80
865,68;17,78
863,75;17,76
861,82;17,74
859,89;17,69
857,96;17,57
856,03;17,40
854,10;17,22
852,17;17,09
850,24;17,02
848,31;17,01
846,38;17,01
844,45;17,04
842,52;17,10
840,59;17,18
838,66;17,23
836,73;17,23
834,80;17,21
832,87;17,16
830,94;17,10
829,01;17,01
827,08;16,91
825,15;16,76
823,22;16,60
821,29;16,41
819,36;16,22
817,43;16,03
815,50;15,91
813,57;15,93
811,64;16,01
809,71;16,08
807,78;16,08
805,85;16,06
803,92;16,07
801,99;16,10
800,06;16,08
798,13;15,93
796,20;15,65
794,27;15,30
792,34;14,89
790,41;14,40
788,48;13,82
786,55;13,16
784,62;12,51
782,69;11,98
780,76;11,62
778,83;11,43
776,90;11,35
774,97;11,36
773,04;11,34
771,11;11,27
769,18;11,19
767,25;11,16
765,32;11,14
763,39;11,13
761,46;11,06
759,53;10,91
757,60;10,69
755,67;10,40
753,74;10,05
751,81;9,69
749,88;9,32
747,95;8,93
746,02;8,48
744,09;8,00
742,16;7,52
740,23;7,05
738,30;6,59
736,37;6,13
734,44;5,65
732,51;5,11
730,58;4,51
728,65;3,87
726,72;3,24
724,79;2,68
722,86;2,36
720,93;2,48
719,00;3,13
717,07;4,10
715,14;5,12
713,21;6,07
711,28;6,94
709,35;7,73
707,42;8,40
705,49;8,96
703,56;9,40
701,63;9,74
699,70;10,01
697,77;10,34
695,84;10,75
693,91;11,14
691,98;11,44
690,05;11,69
688,12;11,94
686,19;12,24
684,26;12,56
682,33;12,85
680,40;13,09
678,47;13,32
676,54;13,52
674,61;13,72
672,68;13,91
670,75;14,07
668,82;14,21
666,89;14,47
664,96;14,61
663,03;14,70
661,10;14,77
659,17;14,85
657,24;14,95
655,31;15,06
653,38;15,16
651,45;15,26
649,52;15,35
647,59;15,44
645,66;15,53
643,73;15,61
641,80;15,68
639,87;15,74
637,94;15,78
636,01;15,82
634,08;15,87
632,15;15,89
630,22;15,89
628,29;15,88
626,36;15,86
624,43;15,82
622,50;15,76
620,57;15,67
618,64;15,57
616,71;15,50
614,78;15,46
612,85;15,42
610,92;15,38
608,99;15,36
607,06;15,34
605,13;15,33
603,20;15,34
601,27;15,38
599,34;15,43
597,41;15,50
595,48;15,57
593,55;15,62
591,62;15,65
589,69;15,68
587,76;15,70
585,83;15,74
583,90;15,79
581,97;15,87
580,04;15,98
578,11;16,14
576,18;16,33
574,25;16,53
572,32;16,73
570,39;16,94
568,46;17,16
566,53;17,36
564,60;17,56
562,67;17,76
560,74;17,94
558,81;18,12
556,88;18,27
554,95;18,40
553,02;18,51
551,09;18,62
549,16;18,73
547,23;18,85
545,30;18,97
543,37;19,08
541,44;19,18
539,51;19,28
537,58;19,38
535,65;19,49
533,72;19,59
531,79;19,69
529,86;19,81
527,93;19,93
526,00;20,05
524,07;20,14
522,14;20,24
520,21;20,38
518,28;20,54
516,35;20,68
514,42;20,80
512,49;20,94
510,56;21,07
508,63;21,17
506,70;21,32
504,77;21,47
502,84;21,61
500,91;21,72
