Created as New Dataset;Amostra 394 por Laboratório data segunda-feira, setembro 23 2024
cm-1;%T
4000,00;24,07
3998,07;24,11
3996,14;24,15
3994,21;24,20
3992,28;24,25
3990,35;24,31
3988,42;24,36
3986,49;24,41
3984,56;24,47
3982,63;24,52
3980,70;24,57
3978,77;24,61
3976,84;24,65
3974,91;24,69
3972,98;24,72
3971,05;24,75
3969,12;24,77
3967,19;24,80
3965,26;24,82
3963,33;24,84
3961,40;24,86
3959,47;24,88
3957,54;24,90
3955,61;24,91
3953,68;24,92
3951,75;24,94
3949,82;24,95
3947,89;24,96
3945,96;24,97
3944,03;24,98
3942,10;24,99
3940,17;25,00
3938,24;25,00
3936,31;25,01
3934,38;25,01
3932,45;25,02
3930,52;25,03
3928,59;25,04
3926,66;25,04
3924,73;25,04
3922,80;25,05
3920,87;25,05
3918,94;25,05
3917,01;25,06
3915,08;25,05
3913,15;25,05
3911,22;25,04
3909,29;25,03
3907,36;25,03
3905,43;25,05
3903,50;25,07
3901,57;25,08
3899,64;25,09
3897,71;25,07
3895,78;25,06
3893,85;25,05
3891,92;25,05
3889,99;25,04
3888,06;25,05
3886,13;25,05
3884,20;25,04
3882,27;25,05
3880,34;25,05
3878,41;25,04
3876,48;25,03
3874,55;25,03
3872,62;25,03
3870,69;25,04
3868,76;25,03
3866,83;25,04
3864,90;25,04
3862,97;25,03
3861,04;25,02
3859,11;25,00
3857,18;24,98
3855,25;24,97
3853,32;24,99
3851,39;25,00
3849,46;24,98
3847,53;24,95
3845,60;24,92
3843,67;24,90
3841,74;24,89
3839,81;24,89
3837,88;24,88
3835,95;24,87
3834,02;24,86
3832,09;24,85
3830,16;24,82
3828,23;24,80
3826,30;24,77
3824,37;24,75
3822,44;24,75
3820,51;24,74
3818,58;24,74
3816,65;24,73
3814,72;24,71
3812,79;24,70
3810,86;24,68
3808,93;24,67
3807,00;24,66
3805,07;24,65
3803,14;24,66
3801,21;24,65
3799,28;24,64
3797,35;24,63
3795,42;24,60
3793,49;24,57
3791,56;24,53
3789,63;24,50
3787,70;24,48
3785,77;24,46
3783,84;24,44
3781,91;24,42
3779,98;24,41
3778,05;24,39
3776,12;24,36
3774,19;24,34
3772,26;24,32
3770,33;24,30
3768,40;24,27
3766,47;24,25
3764,54;24,21
3762,61;24,17
3760,68;24,14
3758,75;24,11
3756,82;24,08
3754,89;24,04
3752,96;24,01
3751,03;23,98
3749,10;23,95
3747,17;23,91
3745,24;23,86
3743,31;23,78
3741,38;23,72
3739,45;23,64
3737,52;23,56
3735,59;23,49
3733,66;23,43
3731,73;23,35
3729,80;23,26
3727,87;23,18
3725,94;23,11
3724,01;23,06
3722,08;23,01
3720,15;22,95
3718,22;22,89
3716,29;22,82
3714,36;22,74
3712,43;22,63
3710,50;22,50
3708,57;22,37
3706,64;22,23
3704,71;22,08
3702,78;21,93
3700,85;21,76
3698,92;21,59
3696,99;21,41
3695,06;21,23
3693,13;21,06
3691,20;20,90
3689,27;20,75
3687,34;20,63
3685,41;20,51
3683,48;20,36
3681,55;20,20
3679,62;20,05
3677,69;19,91
3675,76;19,75
3673,83;19,60
3671,90;19,44
3669,97;19,23
3668,04;19,03
3666,11;18,84
3664,18;18,64
3662,25;18,43
3660,32;18,22
3658,39;18,03
3656,46;17,83
3654,53;17,64
3652,60;17,46
3650,67;17,26
3648,74;17,06
3646,81;16,87
3644,88;16,68
3642,95;16,49
3641,02;16,30
3639,09;16,12
3637,16;15,94
3635,23;15,77
3633,30;15,61
3631,37;15,46
3629,44;15,29
3627,51;15,13
3625,58;14,97
3623,65;14,82
3621,72;14,68
3619,79;14,55
3617,86;14,43
3615,93;14,32
3614,00;14,20
3612,07;14,08
3610,14;13,95
3608,21;13,82
3606,28;13,70
3604,35;13,59
3602,42;13,49
3600,49;13,40
3598,56;13,32
3596,63;13,24
3594,70;13,15
3592,77;13,06
3590,84;12,97
3588,91;12,86
3586,98;12,74
3585,05;12,63
3583,12;12,52
3581,19;12,40
3579,26;12,29
3577,33;12,17
3575,40;12,05
3573,47;11,93
3571,54;11,81
3569,61;11,70
3567,68;11,59
3565,75;11,49
3563,82;11,38
3561,89;11,27
3559,96;11,16
3558,03;11,05
3556,10;10,95
3554,17;10,85
3552,24;10,75
3550,31;10,65
3548,38;10,55
3546,45;10,45
3544,52;10,36
3542,59;10,27
3540,66;10,18
3538,73;10,09
3536,80;10,00
3534,87;9,92
3532,94;9,85
3531,01;9,77
3529,08;9,69
3527,15;9,62
3525,22;9,55
3523,29;9,47
3521,36;9,40
3519,43;9,33
3517,50;9,25
3515,57;9,18
3513,64;9,11
3511,71;9,05
3509,78;8,98
3507,85;8,90
3505,92;8,83
3503,99;8,77
3502,06;8,69
3500,13;8,62
3498,20;8,55
3496,27;8,46
3494,34;8,38
3492,41;8,29
3490,48;8,21
3488,55;8,12
3486,62;8,03
3484,69;7,95
3482,76;7,87
3480,83;7,80
3478,90;7,74
3476,97;7,70
3475,04;7,67
3473,11;7,64
3471,18;7,63
3469,25;7,62
3467,32;7,61
3465,39;7,59
3463,46;7,58
3461,53;7,59
3459,60;7,59
3457,67;7,59
3455,74;7,60
3453,81;7,60
3451,88;7,59
3449,95;7,57
3448,02;7,57
3446,09;7,56
3444,16;7,56
3442,23;7,55
3440,30;7,54
3438,37;7,52
3436,44;7,52
3434,51;7,51
3432,58;7,51
3430,65;7,51
3428,72;7,51
3426,79;7,51
3424,86;7,51
3422,93;7,50
3421,00;7,50
3419,07;7,51
3417,14;7,51
3415,21;7,52
3413,28;7,52
3411,35;7,52
3409,42;7,53
3407,49;7,53
3405,56;7,55
3403,63;7,56
3401,70;7,57
3399,77;7,58
3397,84;7,59
3395,91;7,61
3393,98;7,64
3392,05;7,66
3390,12;7,68
3388,19;7,71
3386,26;7,73
3384,33;7,76
3382,40;7,80
3380,47;7,84
3378,54;7,88
3376,61;7,92
3374,68;7,96
3372,75;7,99
3370,82;8,02
3368,89;8,06
3366,96;8,11
3365,03;8,16
3363,10;8,21
3361,17;8,26
3359,24;8,31
3357,31;8,36
3355,38;8,41
3353,45;8,46
3351,52;8,51
3349,59;8,57
3347,66;8,64
3345,73;8,70
3343,80;8,76
3341,87;8,82
3339,94;8,88
3338,01;8,95
3336,08;9,01
3334,15;9,08
3332,22;9,15
3330,29;9,21
3328,36;9,27
3326,43;9,34
3324,50;9,40
3322,57;9,47
3320,64;9,53
3318,71;9,59
3316,78;9,65
3314,85;9,72
3312,92;9,77
3310,99;9,83
3309,06;9,89
3307,13;9,94
3305,20;10,00
3303,27;10,06
3301,34;10,11
3299,41;10,17
3297,48;10,22
3295,55;10,27
3293,62;10,32
3291,69;10,37
3289,76;10,43
3287,83;10,48
3285,90;10,54
3283,97;10,59
3282,04;10,65
3280,11;10,70
3278,18;10,76
3276,25;10,81
3274,32;10,87
3272,39;10,92
3270,46;10,97
3268,53;11,02
3266,60;11,07
3264,67;11,12
3262,74;11,17
3260,81;11,23
3258,88;11,28
3256,95;11,33
3255,02;11,38
3253,09;11,43
3251,16;11,48
3249,23;11,53
3247,30;11,58
3245,37;11,64
3243,44;11,69
3241,51;11,75
3239,58;11,80
3237,65;11,85
3235,72;11,90
3233,79;11,95
3231,86;12,01
3229,93;12,06
3228,00;12,12
3226,07;12,17
3224,14;12,22
3222,21;12,27
3220,28;12,32
3218,35;12,37
3216,42;12,42
3214,49;12,46
3212,56;12,51
3210,63;12,56
3208,70;12,60
3206,77;12,65
3204,84;12,70
3202,91;12,75
3200,98;12,81
3199,05;12,87
3197,12;12,93
3195,19;13,00
3193,26;13,07
3191,33;13,15
3189,40;13,23
3187,47;13,32
3185,54;13,41
3183,61;13,51
3181,68;13,62
3179,75;13,73
3177,82;13,84
3175,89;13,96
3173,96;14,09
3172,03;14,21
3170,10;14,34
3168,17;14,48
3166,24;14,61
3164,31;14,75
3162,38;14,90
3160,45;15,04
3158,52;15,18
3156,59;15,33
3154,66;15,47
3152,73;15,62
3150,80;15,77
3148,87;15,92
3146,94;16,07
3145,01;16,22
3143,08;16,36
3141,15;16,51
3139,22;16,65
3137,29;16,79
3135,36;16,93
3133,43;17,07
3131,50;17,20
3129,57;17,33
3127,64;17,46
3125,71;17,58
3123,78;17,70
3121,85;17,81
3119,92;17,91
3117,99;18,01
3116,06;18,11
3114,13;18,21
3112,20;18,29
3110,27;18,37
3108,34;18,43
3106,41;18,50
3104,48;18,55
3102,55;18,60
3100,62;18,65
3098,69;18,69
3096,76;18,72
3094,83;18,73
3092,90;18,72
3090,97;18,70
3089,04;18,66
3087,11;18,60
3085,18;18,53
3083,25;18,44
3081,32;18,33
3079,39;18,20
3077,46;18,05
3075,53;17,87
3073,60;17,68
3071,67;17,47
3069,74;17,27
3067,81;17,08
3065,88;16,92
3063,95;16,78
3062,02;16,67
3060,09;16,57
3058,16;16,47
3056,23;16,35
3054,30;16,21
3052,37;16,04
3050,44;15,84
3048,51;15,62
3046,58;15,36
3044,65;15,08
3042,72;14,76
3040,79;14,41
3038,86;14,02
3036,93;13,58
3035,00;13,07
3033,07;12,49
3031,14;11,82
3029,21;11,06
3027,28;10,19
3025,35;9,21
3023,42;8,11
3021,49;6,91
3019,56;5,68
3017,63;4,50
3015,70;3,47
3013,77;2,66
3011,84;2,11
3009,91;1,78
3007,98;1,64
3006,05;1,63
3004,12;1,69
3002,19;1,78
3000,26;1,83
2998,33;1,81
2996,40;1,71
2994,47;1,54
2992,54;1,31
2990,61;1,06
2988,68;0,82
2986,75;0,60
2984,82;0,42
2982,89;0,27
2980,96;0,16
2979,03;0,09
2977,10;0,05
2975,17;0,04
2973,24;0,03
2971,31;0,03
2969,38;0,03
2967,45;0,03
2965,52;0,03
2963,59;0,02
2961,66;0,02
2959,73;0,02
2957,80;0,02
2955,87;0,02
2953,94;0,01
2952,01;0,01
2950,08;0,01
2948,15;0,01
2946,22;0,01
2944,29;0,01
2942,36;0,01
2940,43;0,01
2938,50;0,01
2936,57;0,01
2934,64;0,01
2932,71;0,01
2930,78;0,01
2928,85;0,01
2926,92;0,01
2924,99;0,01
2923,06;0,01
2921,13;0,01
2919,20;0,01
2917,27;0,01
2915,34;0,01
2913,41;0,01
2911,48;0,01
2909,55;0,01
2907,62;0,01
2905,69;0,01
2903,76;0,01
2901,83;0,01
2899,90;0,01
2897,97;0,01
2896,04;0,01
2894,11;0,01
2892,18;0,01
2890,25;0,01
2888,32;0,01
2886,39;0,01
2884,46;0,01
2882,53;0,01
2880,60;0,01
2878,67;0,01
2876,74;0,01
2874,81;0,01
2872,88;0,01
2870,95;0,01
2869,02;0,01
2867,09;0,01
2865,16;0,01
2863,23;0,01
2861,30;0,01
2859,37;0,01
2857,44;0,02
2855,51;0,02
2853,58;0,02
2851,65;0,02
2849,72;0,02
2847,79;0,02
2845,86;0,02
2843,93;0,02
2842,00;0,02
2840,07;0,02
2838,14;0,03
2836,21;0,06
2834,28;0,12
2832,35;0,25
2830,42;0,45
2828,49;0,74
2826,56;1,09
2824,63;1,52
2822,70;2,00
2820,77;2,53
2818,84;3,10
2816,91;3,71
2814,98;4,36
2813,05;5,04
2811,12;5,75
2809,19;6,49
2807,26;7,24
2805,33;8,01
2803,40;8,78
2801,47;9,55
2799,54;10,32
2797,61;11,08
2795,68;11,84
2793,75;12,60
2791,82;13,36
2789,89;14,13
2787,96;14,91
2786,03;15,71
2784,10;16,52
2782,17;17,32
2780,24;18,11
2778,31;18,87
2776,38;19,59
2774,45;20,24
2772,52;20,84
2770,59;21,36
2768,66;21,83
2766,73;22,23
2764,80;22,56
2762,87;22,83
2760,94;23,05
2759,01;23,25
2757,08;23,42
2755,15;23,57
2753,22;23,69
2751,29;23,77
2749,36;23,80
2747,43;23,77
2745,50;23,69
2743,57;23,54
2741,64;23,33
2739,71;23,04
2737,78;22,67
2735,85;22,23
2733,92;21,76
2731,99;21,34
2730,06;21,07
2728,13;21,02
2726,20;21,15
2724,27;21,38
2722,34;21,66
2720,41;21,95
2718,48;22,28
2716,55;22,66
2714,62;23,11
2712,69;23,59
2710,76;24,05
2708,83;24,45
2706,90;24,76
2704,97;24,98
2703,04;25,12
2701,11;25,19
2699,18;25,18
2697,25;25,12
2695,32;25,00
2693,39;24,84
2691,46;24,66
2689,53;24,48
2687,60;24,33
2685,67;24,22
2683,74;24,14
2681,81;24,10
2679,88;24,09
2677,95;24,10
2676,02;24,12
2674,09;24,14
2672,16;24,19
2670,23;24,27
2668,30;24,43
2666,37;24,66
2664,44;24,94
2662,51;25,26
2660,58;25,60
2658,65;25,94
2656,72;26,27
2654,79;26,58
2652,86;26,85
2650,93;27,10
2649,00;27,33
2647,07;27,53
2645,14;27,72
2643,21;27,89
2641,28;28,06
2639,35;28,21
2637,42;28,36
2635,49;28,50
2633,56;28,64
2631,63;28,79
2629,70;28,95
2627,77;29,11
2625,84;29,28
2623,91;29,45
2621,98;29,61
2620,05;29,78
2618,12;29,94
2616,19;30,10
2614,26;30,26
2612,33;30,42
2610,40;30,58
2608,47;30,75
2606,54;30,93
2604,61;31,12
2602,68;31,31
2600,75;31,52
2598,82;31,74
2596,89;31,96
2594,96;32,20
2593,03;32,45
2591,10;32,70
2589,17;32,97
2587,24;33,24
2585,31;33,53
2583,38;33,82
2581,45;34,11
2579,52;34,41
2577,59;34,71
2575,66;35,02
2573,73;35,32
2571,80;35,62
2569,87;35,92
2567,94;36,20
2566,01;36,48
2564,08;36,74
2562,15;36,98
2560,22;37,21
2558,29;37,43
2556,36;37,63
2554,43;37,82
2552,50;37,99
2550,57;38,15
2548,64;38,31
2546,71;38,45
2544,78;38,58
2542,85;38,71
2540,92;38,83
2538,99;38,95
2537,06;39,06
2535,13;39,16
2533,20;39,27
2531,27;39,40
2529,34;39,54
2527,41;39,71
2525,48;39,88
2523,55;40,07
2521,62;40,25
2519,69;40,44
2517,76;40,62
2515,83;40,80
2513,90;40,98
2511,97;41,14
2510,04;41,31
2508,11;41,46
2506,18;41,60
2504,25;41,74
2502,32;41,86
2500,39;41,98
2498,46;42,10
2496,53;42,21
2494,60;42,31
2492,67;42,41
2490,74;42,50
2488,81;42,59
2486,88;42,67
2484,95;42,75
2483,02;42,82
2481,09;42,89
2479,16;42,96
2477,23;43,02
2475,30;43,08
2473,37;43,13
2471,44;43,18
2469,51;43,22
2467,58;43,26
2465,65;43,29
2463,72;43,32
2461,79;43,35
2459,86;43,38
2457,93;43,40
2456,00;43,41
2454,07;43,43
2452,14;43,44
2450,21;43,45
2448,28;43,45
2446,35;43,46
2444,42;43,45
2442,49;43,45
2440,56;43,44
2438,63;43,42
2436,70;43,40
2434,77;43,38
2432,84;43,35
2430,91;43,31
2428,98;43,27
2427,05;43,23
2425,12;43,20
2423,19;43,19
2421,26;43,17
2419,33;43,14
2417,40;43,11
2415,47;43,08
2413,54;43,05
2411,61;43,03
2409,68;43,01
2407,75;42,99
2405,82;42,98
2403,89;42,98
2401,96;42,98
2400,03;42,98
2398,10;43,00
2396,17;43,01
2394,24;43,03
2392,31;43,04
2390,38;43,04
2388,45;43,00
2386,52;42,90
2384,59;42,70
2382,66;42,37
2380,73;41,93
2378,80;41,47
2376,87;41,13
2374,94;40,98
2373,01;40,98
2371,08;41,02
2369,15;41,02
2367,22;40,94
2365,29;40,79
2363,36;40,61
2361,43;40,42
2359,50;40,22
2357,57;40,07
2355,64;39,91
2353,71;39,72
2351,78;39,57
2349,85;39,54
2347,92;39,62
2345,99;39,54
2344,06;39,42
2342,13;39,34
2340,20;38,87
2338,27;37,87
2336,34;37,04
2334,41;37,27
2332,48;38,27
2330,55;39,20
2328,62;39,81
2326,69;40,08
2324,76;40,08
2322,83;40,04
2320,90;40,20
2318,97;40,51
2317,04;40,79
2315,11;40,92
2313,18;40,99
2311,25;41,14
2309,32;41,39
2307,39;41,67
2305,46;41,96
2303,53;42,20
2301,60;42,41
2299,67;42,60
2297,74;42,79
2295,81;42,97
2293,88;43,13
2291,95;43,27
2290,02;43,41
2288,09;43,54
2286,16;43,67
2284,23;43,78
2282,30;43,87
2280,37;43,93
2278,44;43,99
2276,51;44,05
2274,58;44,11
2272,65;44,16
2270,72;44,21
2268,79;44,28
2266,86;44,35
2264,93;44,43
2263,00;44,50
2261,07;44,57
2259,14;44,64
2257,21;44,70
2255,28;44,76
2253,35;44,82
2251,42;44,88
2249,49;44,93
2247,56;44,97
2245,63;45,02
2243,70;45,06
2241,77;45,10
2239,84;45,13
2237,91;45,16
2235,98;45,18
2234,05;45,21
2232,12;45,23
2230,19;45,25
2228,26;45,26
2226,33;45,27
2224,40;45,28
2222,47;45,30
2220,54;45,30
2218,61;45,30
2216,68;45,30
2214,75;45,30
2212,82;45,30
2210,89;45,29
2208,96;45,28
2207,03;45,27
2205,10;45,27
2203,17;45,26
2201,24;45,25
2199,31;45,25
2197,38;45,24
2195,45;45,19
2193,52;45,16
2191,59;45,14
2189,66;45,13
2187,73;45,11
2185,80;45,10
2183,87;45,10
2181,94;45,11
2180,01;45,11
2178,08;45,13
2176,15;45,15
2174,22;45,17
2172,29;45,19
2170,36;45,20
2168,43;45,21
2166,50;45,23
2164,57;45,24
2162,64;45,26
2160,71;45,28
2158,78;45,30
2156,85;45,32
2154,92;45,34
2152,99;45,38
2151,06;45,43
2149,13;45,51
2147,20;45,60
2145,27;45,70
2143,34;45,82
2141,41;45,93
2139,48;46,03
2137,55;46,12
2135,62;46,19
2133,69;46,26
2131,76;46,31
2129,83;46,36
2127,90;46,40
2125,97;46,44
2124,04;46,47
2122,11;46,50
2120,18;46,52
2118,25;46,54
2116,32;46,55
2114,39;46,57
2112,46;46,59
2110,53;46,60
2108,60;46,62
2106,67;46,63
2104,74;46,64
2102,81;46,66
2100,88;46,67
2098,95;46,68
2097,02;46,70
2095,09;46,70
2093,16;46,71
2091,23;46,71
2089,30;46,72
2087,37;46,71
2085,44;46,71
2083,51;46,71
2081,58;46,71
2079,65;46,70
2077,72;46,70
2075,79;46,69
2073,86;46,69
2071,93;46,68
2070,00;46,67
2068,07;46,65
2066,14;46,64
2064,21;46,64
2062,28;46,62
2060,35;46,60
2058,42;46,58
2056,49;46,56
2054,56;46,54
2052,63;46,53
2050,70;46,51
2048,77;46,49
2046,84;46,46
2044,91;46,44
2042,98;46,41
2041,05;46,39
2039,12;46,37
2037,19;46,35
2035,26;46,34
2033,33;46,35
2031,40;46,37
2029,47;46,40
2027,54;46,45
2025,61;46,54
2023,68;46,64
2021,75;46,78
2019,82;46,95
2017,89;47,17
2015,96;47,40
2014,03;47,61
2012,10;47,80
2010,17;47,98
2008,24;48,13
2006,31;48,27
2004,38;48,38
2002,45;48,48
2000,52;48,57
1998,59;48,64
1996,66;48,70
1994,73;48,76
1992,80;48,84
1990,87;48,94
1988,94;49,01
1987,01;49,06
1985,08;49,12
1983,15;49,17
1981,22;49,22
1979,29;49,27
1977,36;49,31
1975,43;49,35
1973,50;49,38
1971,57;49,39
1969,64;49,43
1967,71;49,46
1965,78;49,50
1963,85;49,52
1961,92;49,52
1959,99;49,52
1958,06;49,52
1956,13;49,52
1954,20;49,52
1952,27;49,51
1950,34;49,49
1948,41;49,45
1946,48;49,40
1944,55;49,37
1942,62;49,39
1940,69;49,40
1938,76;49,37
1936,83;49,37
1934,90;49,39
1932,97;49,42
1931,04;49,43
1929,11;49,43
1927,18;49,43
1925,25;49,44
1923,32;49,42
1921,39;49,45
1919,46;49,43
1917,53;49,50
1915,60;49,53
1913,67;49,51
1911,74;49,50
1909,81;49,52
1907,88;49,53
1905,95;49,53
1904,02;49,51
1902,09;49,50
1900,16;49,47
1898,23;49,45
1896,30;49,42
1894,37;49,37
1892,44;49,33
1890,51;49,30
1888,58;49,34
1886,65;49,32
1884,72;49,27
1882,79;49,24
1880,86;49,22
1878,93;49,20
1877,00;49,19
1875,07;49,12
1873,14;49,05
1871,21;49,04
1869,28;49,13
1867,35;49,24
1865,42;49,24
1863,49;49,19
1861,56;49,16
1859,63;49,13
1857,70;49,10
1855,77;49,04
1853,84;48,97
1851,91;48,87
1849,98;48,71
1848,05;48,57
1846,12;48,48
1844,19;48,47
1842,26;48,49
1840,33;48,34
1838,40;48,17
1836,47;47,97
1834,54;47,73
1832,61;47,54
1830,68;47,32
1828,75;47,18
1826,82;46,99
1824,89;46,83
1822,96;46,61
1821,03;46,32
1819,10;46,02
1817,17;45,73
1815,24;45,38
1813,31;45,05
1811,38;44,69
1809,45;44,34
1807,52;43,88
1805,59;43,34
1803,66;42,79
1801,73;42,30
1799,80;41,74
1797,87;41,09
1795,94;40,37
1794,01;39,66
1792,08;38,95
1790,15;38,19
1788,22;37,29
1786,29;36,32
1784,36;35,28
1782,43;34,15
1780,50;32,85
1778,57;31,39
1776,64;29,80
1774,71;28,05
1772,78;25,81
1770,85;23,20
1768,92;20,25
1766,99;16,60
1765,06;12,71
1763,13;8,74
1761,20;5,00
1759,27;2,40
1757,34;0,98
1755,41;0,30
1753,48;0,09
1751,55;0,02
1749,62;0,02
1747,69;0,01
1745,76;0,02
1743,83;0,02
1741,90;0,08
1739,97;0,27
1738,04;0,70
1736,11;1,39
1734,18;2,72
1732,25;4,42
1730,32;6,05
1728,39;7,70
1726,46;9,25
1724,53;10,59
1722,60;11,69
1720,67;12,46
1718,74;12,88
1716,81;12,97
1714,88;12,79
1712,95;12,54
1711,02;12,50
1709,09;12,76
1707,16;13,36
1705,23;14,22
1703,30;15,14
1701,37;16,10
1699,44;17,50
1697,51;18,53
1695,58;19,41
1693,65;20,27
1691,72;20,84
1689,79;21,35
1687,86;21,81
1685,93;22,05
1684,00;22,38
1682,07;22,69
1680,14;22,69
1678,21;22,62
1676,28;22,53
1674,35;22,49
1672,42;22,41
1670,49;22,30
1668,56;22,17
1666,63;21,94
1664,70;21,62
1662,77;21,22
1660,84;20,77
1658,91;20,27
1656,98;19,95
1655,05;19,80
1653,12;19,80
1651,19;19,85
1649,26;19,94
1647,33;20,04
1645,40;20,32
1643,47;20,56
1641,54;20,71
1639,61;20,80
1637,68;20,82
1635,75;20,67
1633,82;20,37
1631,89;20,05
1629,96;20,06
1628,03;20,57
1626,10;21,34
1624,17;22,09
1622,24;22,78
1620,31;23,31
1618,38;23,65
1616,45;23,95
1614,52;24,25
1612,59;24,38
1610,66;24,45
1608,73;24,53
1606,80;24,74
1604,87;25,09
1602,94;25,52
1601,01;25,97
1599,08;26,48
1597,15;27,06
1595,22;27,65
1593,29;28,22
1591,36;28,75
1589,43;29,29
1587,50;29,83
1585,57;30,34
1583,64;30,80
1581,71;31,18
1579,78;31,61
1577,85;31,97
1575,92;32,30
1573,99;32,65
1572,06;32,85
1570,13;33,08
1568,20;33,40
1566,27;33,61
1564,34;33,70
1562,41;33,74
1560,48;33,79
1558,55;34,34
1556,62;34,76
1554,69;34,89
1552,76;35,05
1550,83;35,23
1548,90;35,36
1546,97;35,37
1545,04;35,37
1543,11;35,53
1541,18;35,72
1539,25;35,76
1537,32;35,65
1535,39;35,47
1533,46;35,30
1531,53;35,02
1529,60;34,54
1527,67;33,97
1525,74;33,40
1523,81;32,82
1521,88;32,02
1519,95;31,11
1518,02;30,21
1516,09;29,32
1514,16;28,74
1512,23;28,38
1510,30;28,28
1508,37;28,21
1506,44;28,07
1504,51;27,71
1502,58;27,23
1500,65;26,57
1498,72;25,79
1496,79;24,68
1494,86;23,25
1492,93;21,74
1491,00;20,04
1489,07;18,21
1487,14;16,41
1485,21;14,64
1483,28;12,76
1481,35;10,64
1479,42;8,34
1477,49;6,04
1475,56;3,82
1473,63;1,98
1471,70;0,68
1469,77;0,15
1467,84;0,02
1465,91;0,01
1463,98;0,00
1462,05;0,01
1460,12;0,00
1458,19;0,01
1456,26;0,01
1454,33;0,02
1452,40;0,03
1450,47;0,08
1448,54;0,12
1446,61;0,21
1444,68;0,31
1442,75;0,47
1440,82;0,68
1438,89;0,96
1436,96;1,41
1435,03;2,14
1433,10;3,10
1431,17;4,44
1429,24;6,08
1427,31;7,63
1425,38;8,80
1423,45;9,54
1421,52;9,79
1419,59;9,87
1417,66;10,14
1415,73;10,80
1413,80;11,83
1411,87;13,02
1409,94;13,92
1408,01;14,28
1406,08;14,08
1404,15;13,53
1402,22;12,89
1400,29;12,38
1398,36;11,94
1396,43;11,45
1394,50;10,74
1392,57;9,74
1390,64;8,47
1388,71;6,85
1386,78;4,86
1384,85;3,04
1382,92;1,75
1380,99;0,88
1379,06;0,38
1377,13;0,25
1375,20;0,44
1373,27;0,91
1371,34;1,39
1369,41;1,59
1367,48;1,53
1365,55;1,68
1363,62;2,37
1361,69;3,43
1359,76;4,37
1357,83;4,98
1355,90;5,32
1353,97;5,51
1352,04;5,69
1350,11;5,96
1348,18;6,33
1346,25;6,72
1344,32;7,04
1342,39;7,31
1340,46;7,69
1338,53;8,31
1336,60;9,04
1334,67;9,72
1332,74;10,26
1330,81;10,63
1328,88;10,79
1326,95;10,75
1325,02;10,57
1323,09;10,33
1321,16;10,11
1319,23;9,93
1317,30;9,81
1315,37;9,69
1313,44;9,58
1311,51;9,46
1309,58;9,33
1307,65;9,18
1305,72;9,00
1303,79;8,83
1301,86;8,76
1299,93;8,80
1298,00;8,93
1296,07;9,08
1294,14;9,21
1292,21;9,32
1290,28;9,35
1288,35;9,24
1286,42;8,95
1284,49;8,53
1282,56;8,11
1280,63;7,76
1278,70;7,52
1276,77;7,40
1274,84;7,37
1272,91;7,40
1270,98;7,43
1269,05;7,43
1267,12;7,40
1265,19;7,37
1263,26;7,35
1261,33;7,33
1259,40;7,29
1257,47;7,22
1255,54;7,12
1253,61;6,95
1251,68;6,68
1249,75;6,32
1247,82;5,89
1245,89;5,47
1243,96;5,13
1242,03;4,88
1240,10;4,70
1238,17;4,58
1236,24;4,48
1234,31;4,44
1232,38;4,46
1230,45;4,56
1228,52;4,74
1226,59;4,99
1224,66;5,26
1222,73;5,53
1220,80;5,77
1218,87;5,96
1216,94;6,08
1215,01;6,13
1213,08;6,13
1211,15;6,10
1209,22;6,04
1207,29;5,94
1205,36;5,81
1203,43;5,62
1201,50;5,38
1199,57;5,09
1197,64;4,76
1195,71;4,42
1193,78;4,08
1191,85;3,76
1189,92;3,46
1187,99;3,16
1186,06;2,86
1184,13;2,56
1182,20;2,25
1180,27;1,95
1178,34;1,69
1176,41;1,45
1174,48;1,24
1172,55;1,06
1170,62;0,92
1168,69;0,81
1166,76;0,75
1164,83;0,70
1162,90;0,68
1160,97;0,68
1159,04;0,71
1157,11;0,77
1155,18;0,85
1153,25;0,95
1151,32;1,07
1149,39;1,21
1147,46;1,34
1145,53;1,48
1143,60;1,62
1141,67;1,82
1139,74;2,11
1137,81;2,57
1135,88;3,20
1133,95;3,99
1132,02;4,82
1130,09;5,55
1128,16;5,97
1126,23;6,05
1124,30;5,87
1122,37;5,61
1120,44;5,47
1118,51;5,54
1116,58;5,83
1114,65;6,24
1112,72;6,62
1110,79;6,83
1108,86;6,80
1106,93;6,55
1105,00;6,20
1103,07;5,89
1101,14;5,68
1099,21;5,60
1097,28;5,67
1095,35;5,86
1093,42;6,18
1091,49;6,59
1089,56;7,07
1087,63;7,58
1085,70;8,13
1083,77;8,73
1081,84;9,42
1079,91;10,22
1077,98;11,05
1076,05;11,83
1074,12;12,56
1072,19;13,21
1070,26;13,71
1068,33;14,06
1066,40;14,30
1064,47;14,50
1062,54;14,76
1060,61;15,10
1058,68;15,50
1056,75;15,94
1054,82;16,39
1052,89;16,83
1050,96;17,27
1049,03;17,65
1047,10;17,94
1045,17;18,09
1043,24;18,10
1041,31;17,99
1039,38;17,82
1037,45;17,64
1035,52;17,52
1033,59;17,50
1031,66;17,58
1029,73;17,74
1027,80;17,96
1025,87;18,19
1023,94;18,44
1022,01;18,70
1020,08;18,98
1018,15;19,30
1016,22;19,62
1014,29;19,90
1012,36;20,09
1010,43;20,25
1008,50;20,43
1006,57;20,65
1004,64;20,84
1002,71;20,98
1000,78;21,07
998,85;21,16
996,92;21,26
994,99;21,35
993,06;21,42
991,13;21,44
989,20;21,40
987,27;21,37
985,34;21,38
983,41;21,46
981,48;21,53
979,55;21,55
977,62;21,44
975,69;21,22
973,76;20,90
971,83;20,57
969,90;20,29
967,97;20,11
966,04;20,09
964,11;20,25
962,18;20,58
960,25;20,98
958,32;21,36
956,39;21,71
954,46;22,03
952,53;22,39
950,60;22,80
948,67;23,22
946,74;23,65
944,81;24,07
942,88;24,49
940,95;24,85
939,02;25,17
937,09;25,44
935,16;25,69
933,23;25,92
931,30;26,12
929,37;26,23
927,44;26,23
925,51;26,10
923,58;25,83
921,65;25,44
919,72;25,06
917,79;24,86
915,86;24,92
913,93;25,13
912,00;25,38
910,07;25,65
908,14;25,94
906,21;26,24
904,28;26,50
902,35;26,66
900,42;26,67
898,49;26,53
896,56;26,27
894,63;25,97
892,70;25,68
890,77;25,50
888,84;25,52
886,91;25,76
884,98;26,08
883,05;26,31
881,12;26,40
879,19;26,40
877,26;26,36
875,33;26,29
873,40;26,22
871,47;26,17
869,54;26,15
867,61;26,15
865,68;26,17
863,75;26,19
861,82;26,20
859,89;26,18
857,96;26,13
856,03;26,03
854,10;25,92
852,17;25,80
850,24;25,65
848,31;25,50
846,38;25,43
844,45;25,46
842,52;25,63
840,59;25,87
838,66;26,10
836,73;26,20
834,80;26,23
832,87;26,28
830,94;26,39
829,01;26,50
827,08;26,57
825,15;26,56
823,22;26,50
821,29;26,42
819,36;26,36
817,43;26,32
815,50;26,34
813,57;26,44
811,64;26,57
809,71;26,65
807,78;26,68
805,85;26,73
803,92;26,94
801,99;27,24
800,06;27,46
798,13;27,50
796,20;27,36
794,27;27,13
792,34;26,83
790,41;26,43
788,48;25,88
786,55;25,18
784,62;24,36
782,69;23,54
780,76;22,84
778,83;22,24
776,90;21,63
774,97;20,98
773,04;20,33
771,11;19,77
769,18;19,33
767,25;19,06
765,32;18,91
763,39;18,81
761,46;18,60
759,53;18,29
757,60;17,92
755,67;17,51
753,74;16,99
751,81;16,39
749,88;15,74
747,95;15,01
746,02;14,15
744,09;13,16
742,16;12,09
740,23;11,05
738,30;10,09
736,37;9,17
734,44;8,27
732,51;7,34
730,58;6,38
728,65;5,39
726,72;4,47
724,79;3,70
722,86;3,28
720,93;3,47
719,00;4,38
717,07;5,75
715,14;7,20
713,21;8,55
711,28;9,82
709,35;11,00
707,42;12,07
705,49;12,96
703,56;13,66
701,63;14,18
699,70;14,61
697,77;15,14
695,84;15,83
693,91;16,53
691,98;17,13
690,05;17,65
688,12;18,18
686,19;18,75
684,26;19,32
682,33;19,89
680,40;20,43
678,47;20,98
676,54;21,52
674,61;22,05
672,68;22,51
670,75;22,75
668,82;22,92
666,89;23,82
664,96;24,22
663,03;24,32
661,10;24,45
659,17;24,65
657,24;24,99
655,31;25,41
653,38;25,81
651,45;26,16
649,52;26,47
647,59;26,79
645,66;27,11
643,73;27,36
641,80;27,56
639,87;27,73
637,94;27,85
636,01;27,96
634,08;28,06
632,15;28,12
630,22;28,15
628,29;28,14
626,36;28,14
624,43;28,15
622,50;28,14
620,57;28,06
618,64;27,89
616,71;27,75
614,78;27,68
612,85;27,56
610,92;27,42
608,99;27,25
607,06;27,08
605,13;26,93
603,20;26,84
601,27;26,83
599,34;26,92
597,41;27,06
595,48;27,19
593,55;27,28
591,62;27,35
589,69;27,40
587,76;27,43
585,83;27,46
583,90;27,52
581,97;27,61
580,04;27,75
578,11;27,92
576,18;28,13
574,25;28,37
572,32;28,62
570,39;28,89
568,46;29,15
566,53;29,41
564,60;29,67
562,67;29,96
560,74;30,22
558,81;30,48
556,88;30,69
554,95;30,89
553,02;31,05
551,09;31,22
549,16;31,38
547,23;31,58
545,30;31,78
543,37;31,97
541,44;32,11
539,51;32,23
537,58;32,37
535,65;32,56
533,72;32,76
531,79;32,95
529,86;33,10
527,93;33,20
526,00;33,34
524,07;33,52
522,14;33,66
520,21;33,78
518,28;33,92
516,35;34,08
514,42;34,25
512,49;34,38
510,56;34,53
508,63;34,64
506,70;34,75
504,77;34,80
502,84;34,87
500,91;34,99
