Created as New Dataset;Amostra 400 por Laboratório data segunda-feira, setembro 23 2024
cm-1;%T
4000,00;17,83
3998,07;17,86
3996,14;17,89
3994,21;17,93
3992,28;17,98
3990,35;18,03
3988,42;18,08
3986,49;18,13
3984,56;18,18
3982,63;18,23
3980,70;18,28
3978,77;18,32
3976,84;18,36
3974,91;18,40
3972,98;18,44
3971,05;18,47
3969,12;18,49
3967,19;18,52
3965,26;18,54
3963,33;18,56
3961,40;18,58
3959,47;18,60
3957,54;18,62
3955,61;18,64
3953,68;18,65
3951,75;18,67
3949,82;18,69
3947,89;18,70
3945,96;18,72
3944,03;18,73
3942,10;18,73
3940,17;18,74
3938,24;18,75
3936,31;18,75
3934,38;18,76
3932,45;18,77
3930,52;18,78
3928,59;18,79
3926,66;18,80
3924,73;18,80
3922,80;18,81
3920,87;18,82
3918,94;18,84
3917,01;18,84
3915,08;18,84
3913,15;18,85
3911,22;18,85
3909,29;18,85
3907,36;18,86
3905,43;18,88
3903,50;18,91
3901,57;18,94
3899,64;18,96
3897,71;18,95
3895,78;18,95
3893,85;18,95
3891,92;18,95
3889,99;18,96
3888,06;18,98
3886,13;18,99
3884,20;19,00
3882,27;19,01
3880,34;19,02
3878,41;19,02
3876,48;19,03
3874,55;19,03
3872,62;19,05
3870,69;19,08
3868,76;19,09
3866,83;19,11
3864,90;19,12
3862,97;19,12
3861,04;19,12
3859,11;19,12
3857,18;19,11
3855,25;19,11
3853,32;19,15
3851,39;19,18
3849,46;19,18
3847,53;19,16
3845,60;19,14
3843,67;19,14
3841,74;19,14
3839,81;19,16
3837,88;19,18
3835,95;19,18
3834,02;19,19
3832,09;19,18
3830,16;19,17
3828,23;19,16
3826,30;19,15
3824,37;19,15
3822,44;19,17
3820,51;19,18
3818,58;19,20
3816,65;19,22
3814,72;19,21
3812,79;19,20
3810,86;19,20
3808,93;19,20
3807,00;19,21
3805,07;19,23
3803,14;19,26
3801,21;19,27
3799,28;19,28
3797,35;19,28
3795,42;19,27
3793,49;19,25
3791,56;19,24
3789,63;19,23
3787,70;19,22
3785,77;19,23
3783,84;19,23
3781,91;19,24
3779,98;19,25
3778,05;19,25
3776,12;19,25
3774,19;19,25
3772,26;19,25
3770,33;19,26
3768,40;19,26
3766,47;19,27
3764,54;19,26
3762,61;19,25
3760,68;19,25
3758,75;19,24
3756,82;19,24
3754,89;19,24
3752,96;19,26
3751,03;19,27
3749,10;19,28
3747,17;19,27
3745,24;19,26
3743,31;19,23
3741,38;19,20
3739,45;19,18
3737,52;19,16
3735,59;19,13
3733,66;19,11
3731,73;19,08
3729,80;19,04
3727,87;19,00
3725,94;18,95
3724,01;18,92
3722,08;18,88
3720,15;18,84
3718,22;18,80
3716,29;18,75
3714,36;18,71
3712,43;18,67
3710,50;18,61
3708,57;18,55
3706,64;18,46
3704,71;18,38
3702,78;18,28
3700,85;18,18
3698,92;18,09
3696,99;17,98
3695,06;17,87
3693,13;17,77
3691,20;17,66
3689,27;17,55
3687,34;17,43
3685,41;17,30
3683,48;17,15
3681,55;17,00
3679,62;16,86
3677,69;16,72
3675,76;16,56
3673,83;16,39
3671,90;16,23
3669,97;16,02
3668,04;15,80
3666,11;15,58
3664,18;15,36
3662,25;15,13
3660,32;14,91
3658,39;14,70
3656,46;14,47
3654,53;14,24
3652,60;14,04
3650,67;13,82
3648,74;13,58
3646,81;13,34
3644,88;13,10
3642,95;12,87
3641,02;12,66
3639,09;12,46
3637,16;12,29
3635,23;12,12
3633,30;11,97
3631,37;11,83
3629,44;11,68
3627,51;11,50
3625,58;11,34
3623,65;11,18
3621,72;11,02
3619,79;10,86
3617,86;10,71
3615,93;10,57
3614,00;10,42
3612,07;10,27
3610,14;10,13
3608,21;9,99
3606,28;9,85
3604,35;9,72
3602,42;9,60
3600,49;9,49
3598,56;9,38
3596,63;9,28
3594,70;9,17
3592,77;9,06
3590,84;8,95
3588,91;8,84
3586,98;8,71
3585,05;8,58
3583,12;8,46
3581,19;8,33
3579,26;8,21
3577,33;8,09
3575,40;7,96
3573,47;7,84
3571,54;7,72
3569,61;7,61
3567,68;7,50
3565,75;7,38
3563,82;7,26
3561,89;7,15
3559,96;7,03
3558,03;6,92
3556,10;6,81
3554,17;6,70
3552,24;6,60
3550,31;6,50
3548,38;6,39
3546,45;6,29
3544,52;6,19
3542,59;6,10
3540,66;6,01
3538,73;5,91
3536,80;5,82
3534,87;5,73
3532,94;5,65
3531,01;5,57
3529,08;5,48
3527,15;5,40
3525,22;5,32
3523,29;5,24
3521,36;5,16
3519,43;5,09
3517,50;5,01
3515,57;4,93
3513,64;4,86
3511,71;4,79
3509,78;4,72
3507,85;4,65
3505,92;4,59
3503,99;4,52
3502,06;4,45
3500,13;4,39
3498,20;4,33
3496,27;4,27
3494,34;4,22
3492,41;4,16
3490,48;4,11
3488,55;4,05
3486,62;4,00
3484,69;3,95
3482,76;3,90
3480,83;3,86
3478,90;3,81
3476,97;3,77
3475,04;3,73
3473,11;3,69
3471,18;3,64
3469,25;3,60
3467,32;3,57
3465,39;3,54
3463,46;3,51
3461,53;3,47
3459,60;3,44
3457,67;3,41
3455,74;3,38
3453,81;3,35
3451,88;3,33
3449,95;3,30
3448,02;3,27
3446,09;3,25
3444,16;3,22
3442,23;3,20
3440,30;3,18
3438,37;3,15
3436,44;3,13
3434,51;3,11
3432,58;3,10
3430,65;3,09
3428,72;3,08
3426,79;3,07
3424,86;3,06
3422,93;3,05
3421,00;3,04
3419,07;3,04
3417,14;3,03
3415,21;3,02
3413,28;3,02
3411,35;3,02
3409,42;3,02
3407,49;3,02
3405,56;3,02
3403,63;3,02
3401,70;3,02
3399,77;3,02
3397,84;3,04
3395,91;3,05
3393,98;3,05
3392,05;3,06
3390,12;3,08
3388,19;3,10
3386,26;3,12
3384,33;3,13
3382,40;3,15
3380,47;3,17
3378,54;3,19
3376,61;3,21
3374,68;3,23
3372,75;3,25
3370,82;3,27
3368,89;3,30
3366,96;3,33
3365,03;3,36
3363,10;3,39
3361,17;3,42
3359,24;3,46
3357,31;3,49
3355,38;3,52
3353,45;3,55
3351,52;3,59
3349,59;3,62
3347,66;3,66
3345,73;3,70
3343,80;3,74
3341,87;3,78
3339,94;3,82
3338,01;3,86
3336,08;3,90
3334,15;3,94
3332,22;3,98
3330,29;4,03
3328,36;4,07
3326,43;4,11
3324,50;4,15
3322,57;4,19
3320,64;4,24
3318,71;4,28
3316,78;4,32
3314,85;4,36
3312,92;4,40
3310,99;4,44
3309,06;4,48
3307,13;4,52
3305,20;4,56
3303,27;4,61
3301,34;4,65
3299,41;4,69
3297,48;4,73
3295,55;4,76
3293,62;4,80
3291,69;4,84
3289,76;4,89
3287,83;4,93
3285,90;4,97
3283,97;5,01
3282,04;5,05
3280,11;5,09
3278,18;5,13
3276,25;5,17
3274,32;5,21
3272,39;5,25
3270,46;5,29
3268,53;5,33
3266,60;5,38
3264,67;5,42
3262,74;5,47
3260,81;5,51
3258,88;5,56
3256,95;5,60
3255,02;5,65
3253,09;5,70
3251,16;5,75
3249,23;5,80
3247,30;5,85
3245,37;5,90
3243,44;5,95
3241,51;6,01
3239,58;6,06
3237,65;6,12
3235,72;6,17
3233,79;6,22
3231,86;6,28
3229,93;6,34
3228,00;6,40
3226,07;6,46
3224,14;6,52
3222,21;6,57
3220,28;6,63
3218,35;6,69
3216,42;6,75
3214,49;6,80
3212,56;6,86
3210,63;6,92
3208,70;6,98
3206,77;7,04
3204,84;7,10
3202,91;7,16
3200,98;7,23
3199,05;7,29
3197,12;7,36
3195,19;7,43
3193,26;7,51
3191,33;7,58
3189,40;7,66
3187,47;7,75
3185,54;7,84
3183,61;7,93
3181,68;8,02
3179,75;8,12
3177,82;8,22
3175,89;8,33
3173,96;8,44
3172,03;8,55
3170,10;8,66
3168,17;8,77
3166,24;8,89
3164,31;9,01
3162,38;9,14
3160,45;9,26
3158,52;9,39
3156,59;9,51
3154,66;9,64
3152,73;9,77
3150,80;9,90
3148,87;10,03
3146,94;10,16
3145,01;10,29
3143,08;10,42
3141,15;10,55
3139,22;10,68
3137,29;10,81
3135,36;10,94
3133,43;11,06
3131,50;11,19
3129,57;11,31
3127,64;11,43
3125,71;11,54
3123,78;11,66
3121,85;11,77
3119,92;11,88
3117,99;11,98
3116,06;12,09
3114,13;12,19
3112,20;12,28
3110,27;12,37
3108,34;12,45
3106,41;12,53
3104,48;12,60
3102,55;12,67
3100,62;12,74
3098,69;12,81
3096,76;12,86
3094,83;12,91
3092,90;12,94
3090,97;12,96
3089,04;12,97
3087,11;12,97
3085,18;12,96
3083,25;12,94
3081,32;12,91
3079,39;12,87
3077,46;12,82
3075,53;12,77
3073,60;12,70
3071,67;12,63
3069,74;12,54
3067,81;12,46
3065,88;12,37
3063,95;12,29
3062,02;12,21
3060,09;12,14
3058,16;12,08
3056,23;12,00
3054,30;11,92
3052,37;11,83
3050,44;11,73
3048,51;11,61
3046,58;11,48
3044,65;11,33
3042,72;11,17
3040,79;10,99
3038,86;10,80
3036,93;10,59
3035,00;10,35
3033,07;10,08
3031,14;9,78
3029,21;9,46
3027,28;9,12
3025,35;8,76
3023,42;8,38
3021,49;7,97
3019,56;7,52
3017,63;7,05
3015,70;6,56
3013,77;6,07
3011,84;5,59
3009,91;5,12
3007,98;4,67
3006,05;4,22
3004,12;3,77
3002,19;3,32
3000,26;2,87
2998,33;2,43
2996,40;2,01
2994,47;1,63
2992,54;1,28
2990,61;0,99
2988,68;0,74
2986,75;0,53
2984,82;0,36
2982,89;0,23
2980,96;0,14
2979,03;0,09
2977,10;0,06
2975,17;0,04
2973,24;0,04
2971,31;0,03
2969,38;0,03
2967,45;0,03
2965,52;0,03
2963,59;0,03
2961,66;0,03
2959,73;0,02
2957,80;0,02
2955,87;0,02
2953,94;0,02
2952,01;0,02
2950,08;0,02
2948,15;0,02
2946,22;0,02
2944,29;0,02
2942,36;0,02
2940,43;0,02
2938,50;0,02
2936,57;0,02
2934,64;0,01
2932,71;0,01
2930,78;0,01
2928,85;0,01
2926,92;0,01
2924,99;0,01
2923,06;0,01
2921,13;0,01
2919,20;0,01
2917,27;0,01
2915,34;0,01
2913,41;0,01
2911,48;0,01
2909,55;0,01
2907,62;0,01
2905,69;0,01
2903,76;0,01
2901,83;0,02
2899,90;0,02
2897,97;0,02
2896,04;0,02
2894,11;0,02
2892,18;0,02
2890,25;0,02
2888,32;0,02
2886,39;0,02
2884,46;0,02
2882,53;0,02
2880,60;0,02
2878,67;0,02
2876,74;0,02
2874,81;0,02
2872,88;0,02
2870,95;0,02
2869,02;0,02
2867,09;0,02
2865,16;0,02
2863,23;0,02
2861,30;0,02
2859,37;0,02
2857,44;0,02
2855,51;0,03
2853,58;0,03
2851,65;0,03
2849,72;0,03
2847,79;0,03
2845,86;0,03
2843,93;0,03
2842,00;0,03
2840,07;0,03
2838,14;0,04
2836,21;0,07
2834,28;0,13
2832,35;0,25
2830,42;0,43
2828,49;0,67
2826,56;0,96
2824,63;1,30
2822,70;1,68
2820,77;2,08
2818,84;2,51
2816,91;2,96
2814,98;3,44
2813,05;3,93
2811,12;4,45
2809,19;4,99
2807,26;5,55
2805,33;6,11
2803,40;6,68
2801,47;7,26
2799,54;7,83
2797,61;8,39
2795,68;8,95
2793,75;9,52
2791,82;10,08
2789,89;10,65
2787,96;11,24
2786,03;11,82
2784,10;12,41
2782,17;13,00
2780,24;13,57
2778,31;14,12
2776,38;14,64
2774,45;15,12
2772,52;15,56
2770,59;15,96
2768,66;16,31
2766,73;16,61
2764,80;16,86
2762,87;17,06
2760,94;17,22
2759,01;17,36
2757,08;17,49
2755,15;17,61
2753,22;17,70
2751,29;17,75
2749,36;17,77
2747,43;17,74
2745,50;17,67
2743,57;17,55
2741,64;17,38
2739,71;17,14
2737,78;16,85
2735,85;16,50
2733,92;16,12
2731,99;15,76
2730,06;15,53
2728,13;15,45
2726,20;15,52
2724,27;15,68
2722,34;15,88
2720,41;16,12
2718,48;16,40
2716,55;16,73
2714,62;17,12
2712,69;17,52
2710,76;17,90
2708,83;18,22
2706,90;18,47
2704,97;18,66
2703,04;18,79
2701,11;18,86
2699,18;18,88
2697,25;18,86
2695,32;18,80
2693,39;18,72
2691,46;18,62
2689,53;18,52
2687,60;18,44
2685,67;18,38
2683,74;18,36
2681,81;18,35
2679,88;18,36
2677,95;18,38
2676,02;18,39
2674,09;18,41
2672,16;18,45
2670,23;18,51
2668,30;18,63
2666,37;18,81
2664,44;19,01
2662,51;19,24
2660,58;19,48
2658,65;19,72
2656,72;19,95
2654,79;20,16
2652,86;20,36
2650,93;20,54
2649,00;20,71
2647,07;20,86
2645,14;21,01
2643,21;21,14
2641,28;21,28
2639,35;21,40
2637,42;21,52
2635,49;21,63
2633,56;21,74
2631,63;21,84
2629,70;21,93
2627,77;22,03
2625,84;22,13
2623,91;22,23
2621,98;22,33
2620,05;22,43
2618,12;22,53
2616,19;22,64
2614,26;22,75
2612,33;22,86
2610,40;22,98
2608,47;23,11
2606,54;23,24
2604,61;23,38
2602,68;23,53
2600,75;23,69
2598,82;23,86
2596,89;24,05
2594,96;24,24
2593,03;24,44
2591,10;24,65
2589,17;24,87
2587,24;25,09
2585,31;25,33
2583,38;25,57
2581,45;25,82
2579,52;26,07
2577,59;26,32
2575,66;26,57
2573,73;26,82
2571,80;27,07
2569,87;27,31
2567,94;27,54
2566,01;27,77
2564,08;27,98
2562,15;28,18
2560,22;28,36
2558,29;28,54
2556,36;28,71
2554,43;28,87
2552,50;29,01
2550,57;29,15
2548,64;29,28
2546,71;29,41
2544,78;29,52
2542,85;29,64
2540,92;29,75
2538,99;29,85
2537,06;29,95
2535,13;30,04
2533,20;30,14
2531,27;30,25
2529,34;30,37
2527,41;30,51
2525,48;30,65
2523,55;30,79
2521,62;30,93
2519,69;31,07
2517,76;31,20
2515,83;31,33
2513,90;31,46
2511,97;31,59
2510,04;31,71
2508,11;31,82
2506,18;31,93
2504,25;32,03
2502,32;32,13
2500,39;32,23
2498,46;32,32
2496,53;32,40
2494,60;32,48
2492,67;32,56
2490,74;32,63
2488,81;32,70
2486,88;32,76
2484,95;32,81
2483,02;32,86
2481,09;32,91
2479,16;32,96
2477,23;33,00
2475,30;33,04
2473,37;33,08
2471,44;33,12
2469,51;33,15
2467,58;33,18
2465,65;33,21
2463,72;33,24
2461,79;33,26
2459,86;33,28
2457,93;33,30
2456,00;33,31
2454,07;33,32
2452,14;33,33
2450,21;33,33
2448,28;33,34
2446,35;33,34
2444,42;33,34
2442,49;33,33
2440,56;33,32
2438,63;33,31
2436,70;33,30
2434,77;33,28
2432,84;33,26
2430,91;33,23
2428,98;33,20
2427,05;33,17
2425,12;33,16
2423,19;33,16
2421,26;33,15
2419,33;33,14
2417,40;33,13
2415,47;33,11
2413,54;33,10
2411,61;33,09
2409,68;33,09
2407,75;33,08
2405,82;33,08
2403,89;33,09
2401,96;33,10
2400,03;33,11
2398,10;33,13
2396,17;33,16
2394,24;33,18
2392,31;33,21
2390,38;33,23
2388,45;33,25
2386,52;33,26
2384,59;33,25
2382,66;33,24
2380,73;33,21
2378,80;33,17
2376,87;33,15
2374,94;33,15
2373,01;33,17
2371,08;33,18
2369,15;33,19
2367,22;33,19
2365,29;33,18
2363,36;33,16
2361,43;33,15
2359,50;33,13
2357,57;33,12
2355,64;33,11
2353,71;33,10
2351,78;33,09
2349,85;33,10
2347,92;33,13
2345,99;33,11
2344,06;33,09
2342,13;33,09
2340,20;33,06
2338,27;32,96
2336,34;32,85
2334,41;32,86
2332,48;32,99
2330,55;33,16
2328,62;33,28
2326,69;33,35
2324,76;33,38
2322,83;33,40
2320,90;33,45
2318,97;33,52
2317,04;33,58
2315,11;33,63
2313,18;33,67
2311,25;33,73
2309,32;33,80
2307,39;33,87
2305,46;33,94
2303,53;34,00
2301,60;34,06
2299,67;34,11
2297,74;34,17
2295,81;34,22
2293,88;34,27
2291,95;34,33
2290,02;34,38
2288,09;34,43
2286,16;34,48
2284,23;34,52
2282,30;34,57
2280,37;34,63
2278,44;34,69
2276,51;34,74
2274,58;34,80
2272,65;34,85
2270,72;34,89
2268,79;34,94
2266,86;34,98
2264,93;35,03
2263,00;35,07
2261,07;35,12
2259,14;35,17
2257,21;35,21
2255,28;35,25
2253,35;35,29
2251,42;35,33
2249,49;35,37
2247,56;35,40
2245,63;35,44
2243,70;35,47
2241,77;35,50
2239,84;35,53
2237,91;35,55
2235,98;35,57
2234,05;35,59
2232,12;35,61
2230,19;35,63
2228,26;35,64
2226,33;35,66
2224,40;35,67
2222,47;35,69
2220,54;35,70
2218,61;35,71
2216,68;35,72
2214,75;35,73
2212,82;35,73
2210,89;35,74
2208,96;35,74
2207,03;35,75
2205,10;35,76
2203,17;35,76
2201,24;35,77
2199,31;35,77
2197,38;35,78
2195,45;35,78
2193,52;35,78
2191,59;35,77
2189,66;35,77
2187,73;35,77
2185,80;35,78
2183,87;35,79
2181,94;35,81
2180,01;35,83
2178,08;35,85
2176,15;35,87
2174,22;35,91
2172,29;35,95
2170,36;35,98
2168,43;36,01
2166,50;36,03
2164,57;36,06
2162,64;36,09
2160,71;36,11
2158,78;36,14
2156,85;36,17
2154,92;36,20
2152,99;36,25
2151,06;36,29
2149,13;36,35
2147,20;36,43
2145,27;36,52
2143,34;36,62
2141,41;36,72
2139,48;36,80
2137,55;36,88
2135,62;36,96
2133,69;37,02
2131,76;37,08
2129,83;37,13
2127,90;37,18
2125,97;37,23
2124,04;37,27
2122,11;37,32
2120,18;37,35
2118,25;37,39
2116,32;37,43
2114,39;37,47
2112,46;37,51
2110,53;37,55
2108,60;37,59
2106,67;37,62
2104,74;37,66
2102,81;37,69
2100,88;37,73
2098,95;37,76
2097,02;37,79
2095,09;37,82
2093,16;37,85
2091,23;37,88
2089,30;37,92
2087,37;37,95
2085,44;37,98
2083,51;38,01
2081,58;38,04
2079,65;38,06
2077,72;38,09
2075,79;38,12
2073,86;38,14
2071,93;38,17
2070,00;38,18
2068,07;38,19
2066,14;38,21
2064,21;38,23
2062,28;38,26
2060,35;38,27
2058,42;38,28
2056,49;38,29
2054,56;38,29
2052,63;38,30
2050,70;38,30
2048,77;38,30
2046,84;38,29
2044,91;38,28
2042,98;38,27
2041,05;38,28
2039,12;38,30
2037,19;38,31
2035,26;38,32
2033,33;38,35
2031,40;38,38
2029,47;38,42
2027,54;38,47
2025,61;38,55
2023,68;38,63
2021,75;38,73
2019,82;38,85
2017,89;39,02
2015,96;39,20
2014,03;39,39
2012,10;39,54
2010,17;39,68
2008,24;39,80
2006,31;39,92
2004,38;40,02
2002,45;40,10
2000,52;40,18
1998,59;40,25
1996,66;40,29
1994,73;40,33
1992,80;40,38
1990,87;40,46
1988,94;40,53
1987,01;40,59
1985,08;40,64
1983,15;40,67
1981,22;40,72
1979,29;40,75
1977,36;40,79
1975,43;40,83
1973,50;40,86
1971,57;40,86
1969,64;40,87
1967,71;40,90
1965,78;40,96
1963,85;41,00
1961,92;41,01
1959,99;41,02
1958,06;41,03
1956,13;41,05
1954,20;41,07
1952,27;41,08
1950,34;41,09
1948,41;41,08
1946,48;41,04
1944,55;41,04
1942,62;41,05
1940,69;41,08
1938,76;41,08
1936,83;41,07
1934,90;41,10
1932,97;41,14
1931,04;41,17
1929,11;41,18
1927,18;41,16
1925,25;41,14
1923,32;41,13
1921,39;41,19
1919,46;41,23
1917,53;41,21
1915,60;41,23
1913,67;41,20
1911,74;41,15
1909,81;41,17
1907,88;41,20
1905,95;41,23
1904,02;41,23
1902,09;41,24
1900,16;41,23
1898,23;41,21
1896,30;41,20
1894,37;41,20
1892,44;41,21
1890,51;41,21
1888,58;41,24
1886,65;41,28
1884,72;41,28
1882,79;41,30
1880,86;41,31
1878,93;41,33
1877,00;41,36
1875,07;41,36
1873,14;41,34
1871,21;41,31
1869,28;41,32
1867,35;41,46
1865,42;41,59
1863,49;41,60
1861,56;41,60
1859,63;41,62
1857,70;41,65
1855,77;41,67
1853,84;41,68
1851,91;41,66
1849,98;41,60
1848,05;41,55
1846,12;41,64
1844,19;41,64
1842,26;41,70
1840,33;41,73
1838,40;41,66
1836,47;41,64
1834,54;41,58
1832,61;41,51
1830,68;41,42
1828,75;41,44
1826,82;41,52
1824,89;41,48
1822,96;41,46
1821,03;41,41
1819,10;41,33
1817,17;41,26
1815,24;41,13
1813,31;41,01
1811,38;40,90
1809,45;40,85
1807,52;40,72
1805,59;40,52
1803,66;40,27
1801,73;40,06
1799,80;39,86
1797,87;39,64
1795,94;39,40
1794,01;39,23
1792,08;39,05
1790,15;38,91
1788,22;38,70
1786,29;38,40
1784,36;38,02
1782,43;37,66
1780,50;37,28
1778,57;36,86
1776,64;36,36
1774,71;35,90
1772,78;35,43
1770,85;35,09
1768,92;34,68
1766,99;33,83
1765,06;32,82
1763,13;31,38
1761,20;29,31
1759,27;26,91
1757,34;24,01
1755,41;20,70
1753,48;17,72
1751,55;14,99
1749,62;13,09
1747,69;12,38
1745,76;12,67
1743,83;13,65
1741,90;15,02
1739,97;16,38
1738,04;17,54
1736,11;18,38
1734,18;19,06
1732,25;19,82
1730,32;20,52
1728,39;21,16
1726,46;21,80
1724,53;22,40
1722,60;22,88
1720,67;23,15
1718,74;23,06
1716,81;22,89
1714,88;22,58
1712,95;22,02
1711,02;21,39
1709,09;20,82
1707,16;20,44
1705,23;20,19
1703,30;20,26
1701,37;20,37
1699,44;20,47
1697,51;20,90
1695,58;21,29
1693,65;21,64
1691,72;21,85
1689,79;21,92
1687,86;21,94
1685,93;21,90
1684,00;21,91
1682,07;21,96
1680,14;21,81
1678,21;21,61
1676,28;21,34
1674,35;20,95
1672,42;20,68
1670,49;20,43
1668,56;20,17
1666,63;19,92
1664,70;19,68
1662,77;19,41
1660,84;19,18
1658,91;18,93
1656,98;18,66
1655,05;18,43
1653,12;18,25
1651,19;18,16
1649,26;18,16
1647,33;18,10
1645,40;18,08
1643,47;18,02
1641,54;17,89
1639,61;17,68
1637,68;17,54
1635,75;17,37
1633,82;17,07
1631,89;16,84
1629,96;16,90
1628,03;17,29
1626,10;17,80
1624,17;18,22
1622,24;18,52
1620,31;18,66
1618,38;18,71
1616,45;18,77
1614,52;18,88
1612,59;18,85
1610,66;18,68
1608,73;18,54
1606,80;18,53
1604,87;18,66
1602,94;18,87
1601,01;19,12
1599,08;19,43
1597,15;19,80
1595,22;20,21
1593,29;20,58
1591,36;20,90
1589,43;21,21
1587,50;21,52
1585,57;21,82
1583,64;22,09
1581,71;22,31
1579,78;22,45
1577,85;22,61
1575,92;22,96
1573,99;23,38
1572,06;23,65
1570,13;23,87
1568,20;24,16
1566,27;24,42
1564,34;24,58
1562,41;24,74
1560,48;24,76
1558,55;25,28
1556,62;25,73
1554,69;26,02
1552,76;26,24
1550,83;26,53
1548,90;26,77
1546,97;26,93
1545,04;26,93
1543,11;26,95
1541,18;27,08
1539,25;27,47
1537,32;27,67
1535,39;27,75
1533,46;27,70
1531,53;27,58
1529,60;27,31
1527,67;26,91
1525,74;26,43
1523,81;25,86
1521,88;25,17
1519,95;24,27
1518,02;23,47
1516,09;22,75
1514,16;22,43
1512,23;22,34
1510,30;22,27
1508,37;22,17
1506,44;22,21
1504,51;21,91
1502,58;21,54
1500,65;20,96
1498,72;20,22
1496,79;19,31
1494,86;18,16
1492,93;16,93
1491,00;15,41
1489,07;13,80
1487,14;12,33
1485,21;10,93
1483,28;9,48
1481,35;7,88
1479,42;6,18
1477,49;4,49
1475,56;2,86
1473,63;1,52
1471,70;0,55
1469,77;0,14
1467,84;0,04
1465,91;0,02
1463,98;0,02
1462,05;0,02
1460,12;0,02
1458,19;0,03
1456,26;0,02
1454,33;0,04
1452,40;0,05
1450,47;0,09
1448,54;0,14
1446,61;0,23
1444,68;0,36
1442,75;0,57
1440,82;0,86
1438,89;1,25
1436,96;1,86
1435,03;2,81
1433,10;4,03
1431,17;5,67
1429,24;7,56
1427,31;9,30
1425,38;10,68
1423,45;11,82
1421,52;12,63
1419,59;13,29
1417,66;13,91
1415,73;14,43
1413,80;14,79
1411,87;15,08
1409,94;15,23
1408,01;15,27
1406,08;15,18
1404,15;15,05
1402,22;14,82
1400,29;14,49
1398,36;13,97
1396,43;13,18
1394,50;11,93
1392,57;10,35
1390,64;8,70
1388,71;6,87
1386,78;4,79
1384,85;2,97
1382,92;1,71
1380,99;0,87
1379,06;0,37
1377,13;0,24
1375,20;0,43
1373,27;0,95
1371,34;1,55
1369,41;1,81
1367,48;1,73
1365,55;1,94
1363,62;2,94
1361,69;4,51
1359,76;5,93
1357,83;6,87
1355,90;7,41
1353,97;7,71
1352,04;7,99
1350,11;8,40
1348,18;8,93
1346,25;9,43
1344,32;9,79
1342,39;10,02
1340,46;10,35
1338,53;10,99
1336,60;11,80
1334,67;12,61
1332,74;13,32
1330,81;13,93
1328,88;14,39
1326,95;14,73
1325,02;14,94
1323,09;15,02
1321,16;14,96
1319,23;14,80
1317,30;14,58
1315,37;14,36
1313,44;14,17
1311,51;14,02
1309,58;13,90
1307,65;13,79
1305,72;13,73
1303,79;13,74
1301,86;13,84
1299,93;14,07
1298,00;14,41
1296,07;14,81
1294,14;15,21
1292,21;15,58
1290,28;15,89
1288,35;16,14
1286,42;16,33
1284,49;16,44
1282,56;16,47
1280,63;16,42
1278,70;16,31
1276,77;16,21
1274,84;16,18
1272,91;16,22
1270,98;16,35
1269,05;16,52
1267,12;16,72
1265,19;16,90
1263,26;17,06
1261,33;17,20
1259,40;17,35
1257,47;17,46
1255,54;17,51
1253,61;17,47
1251,68;17,35
1249,75;17,16
1247,82;16,95
1245,89;16,75
1243,96;16,59
1242,03;16,45
1240,10;16,25
1238,17;15,93
1236,24;15,50
1234,31;15,11
1232,38;14,92
1230,45;15,00
1228,52;15,28
1226,59;15,67
1224,66;16,10
1222,73;16,51
1220,80;16,88
1218,87;17,21
1216,94;17,47
1215,01;17,67
1213,08;17,80
1211,15;17,86
1209,22;17,86
1207,29;17,82
1205,36;17,72
1203,43;17,59
1201,50;17,45
1199,57;17,31
1197,64;17,15
1195,71;16,97
1193,78;16,78
1191,85;16,61
1189,92;16,47
1187,99;16,35
1186,06;16,18
1184,13;15,88
1182,20;15,42
1180,27;14,92
1178,34;14,48
1176,41;14,06
1174,48;13,57
1172,55;13,01
1170,62;12,53
1168,69;12,27
1166,76;12,21
1164,83;12,19
1162,90;12,12
1160,97;12,01
1159,04;11,90
1157,11;11,83
1155,18;11,85
1153,25;11,97
1151,32;12,19
1149,39;12,49
1147,46;12,87
1145,53;13,30
1143,60;13,78
1141,67;14,32
1139,74;14,92
1137,81;15,54
1135,88;16,17
1133,95;16,74
1132,02;17,22
1130,09;17,55
1128,16;17,73
1126,23;17,75
1124,30;17,67
1122,37;17,59
1120,44;17,57
1118,51;17,67
1116,58;17,85
1114,65;18,08
1112,72;18,31
1110,79;18,52
1108,86;18,67
1106,93;18,75
1105,00;18,76
1103,07;18,73
1101,14;18,68
1099,21;18,64
1097,28;18,58
1095,35;18,48
1093,42;18,35
1091,49;18,24
1089,56;18,15
1087,63;18,13
1085,70;18,18
1083,77;18,29
1081,84;18,45
1079,91;18,65
1077,98;18,91
1076,05;19,24
1074,12;19,65
1072,19;20,09
1070,26;20,49
1068,33;20,82
1066,40;21,09
1064,47;21,35
1062,54;21,65
1060,61;22,02
1058,68;22,41
1056,75;22,77
1054,82;23,06
1052,89;23,23
1050,96;23,33
1049,03;23,34
1047,10;23,31
1045,17;23,23
1043,24;23,16
1041,31;23,08
1039,38;23,03
1037,45;23,02
1035,52;23,09
1033,59;23,23
1031,66;23,44
1029,73;23,68
1027,80;23,95
1025,87;24,19
1023,94;24,40
1022,01;24,56
1020,08;24,72
1018,15;24,86
1016,22;24,95
1014,29;24,95
1012,36;24,89
1010,43;24,87
1008,50;24,95
1006,57;25,11
1004,64;25,24
1002,71;25,30
1000,78;25,30
998,85;25,31
996,92;25,33
994,99;25,39
993,06;25,46
991,13;25,52
989,20;25,54
987,27;25,52
985,34;25,46
983,41;25,36
981,48;25,22
979,55;25,05
977,62;24,83
975,69;24,59
973,76;24,37
971,83;24,20
969,90;24,06
967,97;24,01
966,04;24,08
964,11;24,33
962,18;24,73
960,25;25,16
958,32;25,53
956,39;25,80
954,46;26,02
952,53;26,28
950,60;26,62
948,67;26,96
946,74;27,25
944,81;27,50
942,88;27,73
940,95;27,92
939,02;28,06
937,09;28,17
935,16;28,31
933,23;28,48
931,30;28,69
929,37;28,88
927,44;29,03
925,51;29,09
923,58;29,05
921,65;28,93
919,72;28,84
917,79;28,97
915,86;29,38
913,93;29,84
912,00;30,15
910,07;30,31
908,14;30,40
906,21;30,46
904,28;30,44
902,35;30,30
900,42;30,01
898,49;29,57
896,56;29,02
894,63;28,46
892,70;27,96
890,77;27,63
888,84;27,56
886,91;27,81
884,98;28,15
883,05;28,43
881,12;28,59
879,19;28,71
877,26;28,80
875,33;28,85
873,40;28,87
871,47;28,88
869,54;28,85
867,61;28,78
865,68;28,69
863,75;28,59
861,82;28,50
859,89;28,42
857,96;28,31
856,03;28,18
854,10;28,04
852,17;27,90
850,24;27,74
848,31;27,61
846,38;27,55
844,45;27,54
842,52;27,59
840,59;27,67
838,66;27,70
836,73;27,60
834,80;27,40
832,87;27,19
830,94;27,03
829,01;26,87
827,08;26,67
825,15;26,40
823,22;26,09
821,29;25,74
819,36;25,43
817,43;25,19
815,50;25,07
813,57;25,08
811,64;25,16
809,71;25,21
807,78;25,18
805,85;25,17
803,92;25,36
801,99;25,71
800,06;25,99
798,13;26,08
796,20;25,99
794,27;25,81
792,34;25,61
790,41;25,32
788,48;24,90
786,55;24,36
784,62;23,66
782,69;22,92
780,76;22,31
778,83;21,84
776,90;21,39
774,97;20,91
773,04;20,42
771,11;20,00
769,18;19,69
767,25;19,53
765,32;19,55
763,39;19,65
761,46;19,66
759,53;19,50
757,60;19,19
755,67;18,78
753,74;18,29
751,81;17,80
749,88;17,37
747,95;16,97
746,02;16,49
744,09;15,88
742,16;15,15
740,23;14,49
738,30;14,02
736,37;13,61
734,44;13,10
732,51;12,36
730,58;11,34
728,65;10,08
726,72;8,77
724,79;7,57
722,86;6,79
720,93;6,97
719,00;8,45
717,07;10,74
715,14;13,14
713,21;15,28
711,28;17,14
709,35;18,73
707,42;20,02
705,49;20,98
703,56;21,64
701,63;22,01
699,70;22,24
697,77;22,70
695,84;23,55
693,91;24,44
691,98;25,09
690,05;25,57
688,12;25,98
686,19;26,33
684,26;26,60
682,33;26,78
680,40;26,87
678,47;26,91
676,54;26,91
674,61;26,91
672,68;26,92
670,75;26,91
668,82;26,87
666,89;27,00
664,96;27,01
663,03;26,98
661,10;26,94
659,17;26,96
657,24;27,02
655,31;27,13
653,38;27,24
651,45;27,38
649,52;27,52
647,59;27,68
645,66;27,85
643,73;28,01
641,80;28,15
639,87;28,27
637,94;28,35
636,01;28,44
634,08;28,52
632,15;28,58
630,22;28,62
628,29;28,63
626,36;28,67
624,43;28,73
622,50;28,79
620,57;28,80
618,64;28,80
616,71;28,78
614,78;28,80
612,85;28,79
610,92;28,78
608,99;28,74
607,06;28,67
605,13;28,59
603,20;28,56
601,27;28,59
599,34;28,73
597,41;28,90
595,48;29,09
593,55;29,22
591,62;29,35
589,69;29,46
587,76;29,56
585,83;29,65
583,90;29,75
581,97;29,84
580,04;29,94
578,11;30,03
576,18;30,11
574,25;30,19
572,32;30,23
570,39;30,27
568,46;30,30
566,53;30,37
564,60;30,46
562,67;30,59
560,74;30,71
558,81;30,86
556,88;30,96
554,95;31,10
553,02;31,21
551,09;31,35
549,16;31,48
547,23;31,66
545,30;31,85
543,37;32,05
541,44;32,18
539,51;32,31
537,58;32,45
535,65;32,67
533,72;32,86
531,79;33,05
529,86;33,20
527,93;33,37
526,00;33,54
524,07;33,72
522,14;33,86
520,21;33,99
518,28;34,16
516,35;34,40
514,42;34,67
512,49;34,89
510,56;35,11
508,63;35,27
506,70;35,45
504,77;35,62
502,84;35,83
500,91;35,98
