Created as New Dataset;Amostra 394 por Laboratório data segunda-feira, setembro 23 2024
cm-1;%T
4000,00;15,02
3998,07;15,05
3996,14;15,08
3994,21;15,12
3992,28;15,17
3990,35;15,21
3988,42;15,26
3986,49;15,30
3984,56;15,35
3982,63;15,40
3980,70;15,44
3978,77;15,49
3976,84;15,53
3974,91;15,56
3972,98;15,60
3971,05;15,63
3969,12;15,66
3967,19;15,69
3965,26;15,71
3963,33;15,74
3961,40;15,76
3959,47;15,78
3957,54;15,80
3955,61;15,83
3953,68;15,85
3951,75;15,87
3949,82;15,89
3947,89;15,91
3945,96;15,93
3944,03;15,95
3942,10;15,96
3940,17;15,98
3938,24;15,99
3936,31;16,00
3934,38;16,02
3932,45;16,03
3930,52;16,05
3928,59;16,06
3926,66;16,07
3924,73;16,09
3922,80;16,10
3920,87;16,12
3918,94;16,13
3917,01;16,15
3915,08;16,16
3913,15;16,17
3911,22;16,18
3909,29;16,19
3907,36;16,20
3905,43;16,23
3903,50;16,26
3901,57;16,30
3899,64;16,32
3897,71;16,32
3895,78;16,33
3893,85;16,34
3891,92;16,34
3889,99;16,36
3888,06;16,39
3886,13;16,41
3884,20;16,42
3882,27;16,45
3880,34;16,46
3878,41;16,47
3876,48;16,49
3874,55;16,50
3872,62;16,52
3870,69;16,55
3868,76;16,57
3866,83;16,60
3864,90;16,62
3862,97;16,62
3861,04;16,64
3859,11;16,64
3857,18;16,64
3855,25;16,65
3853,32;16,70
3851,39;16,74
3849,46;16,75
3847,53;16,74
3845,60;16,74
3843,67;16,74
3841,74;16,76
3839,81;16,78
3837,88;16,80
3835,95;16,82
3834,02;16,84
3832,09;16,84
3830,16;16,84
3828,23;16,85
3826,30;16,85
3824,37;16,86
3822,44;16,88
3820,51;16,90
3818,58;16,93
3816,65;16,96
3814,72;16,97
3812,79;16,97
3810,86;16,98
3808,93;16,99
3807,00;17,02
3805,07;17,04
3803,14;17,08
3801,21;17,11
3799,28;17,12
3797,35;17,14
3795,42;17,14
3793,49;17,14
3791,56;17,14
3789,63;17,14
3787,70;17,16
3785,77;17,17
3783,84;17,19
3781,91;17,21
3779,98;17,23
3778,05;17,25
3776,12;17,26
3774,19;17,28
3772,26;17,29
3770,33;17,31
3768,40;17,33
3766,47;17,35
3764,54;17,36
3762,61;17,37
3760,68;17,38
3758,75;17,39
3756,82;17,40
3754,89;17,42
3752,96;17,44
3751,03;17,47
3749,10;17,50
3747,17;17,51
3745,24;17,52
3743,31;17,52
3741,38;17,51
3739,45;17,51
3737,52;17,51
3735,59;17,51
3733,66;17,50
3731,73;17,49
3729,80;17,47
3727,87;17,46
3725,94;17,44
3724,01;17,42
3722,08;17,41
3720,15;17,39
3718,22;17,37
3716,29;17,35
3714,36;17,33
3712,43;17,31
3710,50;17,28
3708,57;17,24
3706,64;17,19
3704,71;17,13
3702,78;17,06
3700,85;16,99
3698,92;16,92
3696,99;16,84
3695,06;16,76
3693,13;16,68
3691,20;16,59
3689,27;16,49
3687,34;16,40
3685,41;16,29
3683,48;16,17
3681,55;16,04
3679,62;15,91
3677,69;15,79
3675,76;15,64
3673,83;15,48
3671,90;15,34
3669,97;15,15
3668,04;14,93
3666,11;14,72
3664,18;14,51
3662,25;14,29
3660,32;14,07
3658,39;13,86
3656,46;13,64
3654,53;13,42
3652,60;13,22
3650,67;13,00
3648,74;12,77
3646,81;12,53
3644,88;12,31
3642,95;12,09
3641,02;11,88
3639,09;11,68
3637,16;11,50
3635,23;11,32
3633,30;11,16
3631,37;11,01
3629,44;10,84
3627,51;10,66
3625,58;10,49
3623,65;10,32
3621,72;10,16
3619,79;9,99
3617,86;9,83
3615,93;9,68
3614,00;9,54
3612,07;9,39
3610,14;9,24
3608,21;9,10
3606,28;8,95
3604,35;8,82
3602,42;8,70
3600,49;8,58
3598,56;8,47
3596,63;8,37
3594,70;8,25
3592,77;8,14
3590,84;8,03
3588,91;7,91
3586,98;7,78
3585,05;7,65
3583,12;7,53
3581,19;7,40
3579,26;7,28
3577,33;7,15
3575,40;7,03
3573,47;6,91
3571,54;6,79
3569,61;6,69
3567,68;6,57
3565,75;6,46
3563,82;6,34
3561,89;6,22
3559,96;6,11
3558,03;6,00
3556,10;5,89
3554,17;5,79
3552,24;5,69
3550,31;5,59
3548,38;5,49
3546,45;5,39
3544,52;5,29
3542,59;5,20
3540,66;5,11
3538,73;5,02
3536,80;4,93
3534,87;4,85
3532,94;4,77
3531,01;4,69
3529,08;4,61
3527,15;4,53
3525,22;4,45
3523,29;4,38
3521,36;4,30
3519,43;4,23
3517,50;4,16
3515,57;4,09
3513,64;4,02
3511,71;3,95
3509,78;3,89
3507,85;3,83
3505,92;3,76
3503,99;3,70
3502,06;3,64
3500,13;3,58
3498,20;3,53
3496,27;3,47
3494,34;3,42
3492,41;3,37
3490,48;3,32
3488,55;3,27
3486,62;3,23
3484,69;3,18
3482,76;3,14
3480,83;3,10
3478,90;3,06
3476,97;3,02
3475,04;2,98
3473,11;2,94
3471,18;2,91
3469,25;2,87
3467,32;2,84
3465,39;2,81
3463,46;2,78
3461,53;2,76
3459,60;2,73
3457,67;2,70
3455,74;2,68
3453,81;2,65
3451,88;2,63
3449,95;2,61
3448,02;2,58
3446,09;2,56
3444,16;2,54
3442,23;2,52
3440,30;2,50
3438,37;2,48
3436,44;2,45
3434,51;2,44
3432,58;2,43
3430,65;2,42
3428,72;2,41
3426,79;2,40
3424,86;2,39
3422,93;2,39
3421,00;2,38
3419,07;2,37
3417,14;2,37
3415,21;2,36
3413,28;2,35
3411,35;2,35
3409,42;2,35
3407,49;2,36
3405,56;2,36
3403,63;2,36
3401,70;2,35
3399,77;2,36
3397,84;2,37
3395,91;2,38
3393,98;2,39
3392,05;2,40
3390,12;2,41
3388,19;2,43
3386,26;2,45
3384,33;2,46
3382,40;2,47
3380,47;2,49
3378,54;2,51
3376,61;2,53
3374,68;2,55
3372,75;2,57
3370,82;2,58
3368,89;2,60
3366,96;2,63
3365,03;2,66
3363,10;2,69
3361,17;2,72
3359,24;2,75
3357,31;2,78
3355,38;2,81
3353,45;2,84
3351,52;2,86
3349,59;2,90
3347,66;2,93
3345,73;2,97
3343,80;3,00
3341,87;3,03
3339,94;3,07
3338,01;3,10
3336,08;3,14
3334,15;3,18
3332,22;3,22
3330,29;3,26
3328,36;3,29
3326,43;3,33
3324,50;3,37
3322,57;3,41
3320,64;3,45
3318,71;3,49
3316,78;3,52
3314,85;3,56
3312,92;3,60
3310,99;3,63
3309,06;3,67
3307,13;3,70
3305,20;3,74
3303,27;3,78
3301,34;3,82
3299,41;3,86
3297,48;3,89
3295,55;3,93
3293,62;3,96
3291,69;4,00
3289,76;4,04
3287,83;4,08
3285,90;4,11
3283,97;4,15
3282,04;4,19
3280,11;4,23
3278,18;4,26
3276,25;4,30
3274,32;4,34
3272,39;4,37
3270,46;4,41
3268,53;4,45
3266,60;4,49
3264,67;4,53
3262,74;4,58
3260,81;4,62
3258,88;4,66
3256,95;4,70
3255,02;4,75
3253,09;4,80
3251,16;4,84
3249,23;4,89
3247,30;4,93
3245,37;4,98
3243,44;5,03
3241,51;5,08
3239,58;5,13
3237,65;5,18
3235,72;5,23
3233,79;5,29
3231,86;5,34
3229,93;5,40
3228,00;5,45
3226,07;5,50
3224,14;5,56
3222,21;5,61
3220,28;5,67
3218,35;5,72
3216,42;5,78
3214,49;5,83
3212,56;5,89
3210,63;5,94
3208,70;5,99
3206,77;6,05
3204,84;6,11
3202,91;6,16
3200,98;6,22
3199,05;6,28
3197,12;6,35
3195,19;6,41
3193,26;6,48
3191,33;6,55
3189,40;6,62
3187,47;6,70
3185,54;6,77
3183,61;6,86
3181,68;6,94
3179,75;7,03
3177,82;7,12
3175,89;7,21
3173,96;7,30
3172,03;7,40
3170,10;7,50
3168,17;7,60
3166,24;7,70
3164,31;7,80
3162,38;7,91
3160,45;8,01
3158,52;8,12
3156,59;8,23
3154,66;8,33
3152,73;8,44
3150,80;8,55
3148,87;8,66
3146,94;8,78
3145,01;8,88
3143,08;8,99
3141,15;9,10
3139,22;9,20
3137,29;9,31
3135,36;9,42
3133,43;9,52
3131,50;9,62
3129,57;9,72
3127,64;9,81
3125,71;9,91
3123,78;10,00
3121,85;10,08
3119,92;10,17
3117,99;10,25
3116,06;10,33
3114,13;10,41
3112,20;10,48
3110,27;10,54
3108,34;10,60
3106,41;10,66
3104,48;10,72
3102,55;10,77
3100,62;10,82
3098,69;10,86
3096,76;10,90
3094,83;10,92
3092,90;10,94
3090,97;10,95
3089,04;10,94
3087,11;10,92
3085,18;10,90
3083,25;10,87
3081,32;10,83
3079,39;10,77
3077,46;10,72
3075,53;10,65
3073,60;10,58
3071,67;10,50
3069,74;10,41
3067,81;10,32
3065,88;10,23
3063,95;10,15
3062,02;10,08
3060,09;10,01
3058,16;9,94
3056,23;9,88
3054,30;9,80
3052,37;9,71
3050,44;9,62
3048,51;9,51
3046,58;9,39
3044,65;9,26
3042,72;9,12
3040,79;8,97
3038,86;8,81
3036,93;8,63
3035,00;8,43
3033,07;8,21
3031,14;7,96
3029,21;7,70
3027,28;7,41
3025,35;7,12
3023,42;6,80
3021,49;6,46
3019,56;6,09
3017,63;5,71
3015,70;5,31
3013,77;4,91
3011,84;4,52
3009,91;4,14
3007,98;3,77
3006,05;3,40
3004,12;3,04
3002,19;2,69
3000,26;2,34
2998,33;2,00
2996,40;1,67
2994,47;1,36
2992,54;1,08
2990,61;0,83
2988,68;0,62
2986,75;0,44
2984,82;0,30
2982,89;0,19
2980,96;0,11
2979,03;0,06
2977,10;0,04
2975,17;0,02
2973,24;0,02
2971,31;0,02
2969,38;0,02
2967,45;0,02
2965,52;0,02
2963,59;0,01
2961,66;0,01
2959,73;0,01
2957,80;0,01
2955,87;0,01
2953,94;0,01
2952,01;0,00
2950,08;0,00
2948,15;0,00
2946,22;0,00
2944,29;0,00
2942,36;0,00
2940,43;0,00
2938,50;0,00
2936,57;0,00
2934,64;0,00
2932,71;0,00
2930,78;0,00
2928,85;0,00
2926,92;0,00
2924,99;0,00
2923,06;0,00
2921,13;0,00
2919,20;0,00
2917,27;0,00
2915,34;0,00
2913,41;0,00
2911,48;0,00
2909,55;0,00
2907,62;0,00
2905,69;0,00
2903,76;0,00
2901,83;0,00
2899,90;0,00
2897,97;0,00
2896,04;0,00
2894,11;0,00
2892,18;0,00
2890,25;0,00
2888,32;0,00
2886,39;0,00
2884,46;0,00
2882,53;0,00
2880,60;0,00
2878,67;0,00
2876,74;0,00
2874,81;0,00
2872,88;0,00
2870,95;0,01
2869,02;0,01
2867,09;0,01
2865,16;0,01
2863,23;0,01
2861,30;0,01
2859,37;0,01
2857,44;0,01
2855,51;0,02
2853,58;0,02
2851,65;0,02
2849,72;0,02
2847,79;0,02
2845,86;0,02
2843,93;0,02
2842,00;0,02
2840,07;0,02
2838,14;0,02
2836,21;0,05
2834,28;0,10
2832,35;0,19
2830,42;0,33
2828,49;0,53
2826,56;0,77
2824,63;1,04
2822,70;1,34
2820,77;1,67
2818,84;2,02
2816,91;2,39
2814,98;2,77
2813,05;3,17
2811,12;3,59
2809,19;4,02
2807,26;4,46
2805,33;4,92
2803,40;5,37
2801,47;5,82
2799,54;6,28
2797,61;6,72
2795,68;7,17
2793,75;7,62
2791,82;8,06
2789,89;8,51
2787,96;8,97
2786,03;9,44
2784,10;9,90
2782,17;10,37
2780,24;10,82
2778,31;11,25
2776,38;11,66
2774,45;12,04
2772,52;12,39
2770,59;12,70
2768,66;12,97
2766,73;13,21
2764,80;13,40
2762,87;13,56
2760,94;13,69
2759,01;13,80
2757,08;13,90
2755,15;13,99
2753,22;14,06
2751,29;14,10
2749,36;14,12
2747,43;14,10
2745,50;14,04
2743,57;13,95
2741,64;13,81
2739,71;13,63
2737,78;13,39
2735,85;13,11
2733,92;12,80
2731,99;12,52
2730,06;12,33
2728,13;12,28
2726,20;12,34
2724,27;12,47
2722,34;12,64
2720,41;12,84
2718,48;13,06
2716,55;13,33
2714,62;13,64
2712,69;13,96
2710,76;14,26
2708,83;14,52
2706,90;14,72
2704,97;14,87
2703,04;14,97
2701,11;15,03
2699,18;15,05
2697,25;15,03
2695,32;14,98
2693,39;14,91
2691,46;14,83
2689,53;14,75
2687,60;14,68
2685,67;14,64
2683,74;14,62
2681,81;14,61
2679,88;14,62
2677,95;14,63
2676,02;14,64
2674,09;14,66
2672,16;14,69
2670,23;14,75
2668,30;14,84
2666,37;14,98
2664,44;15,15
2662,51;15,34
2660,58;15,54
2658,65;15,73
2656,72;15,92
2654,79;16,10
2652,86;16,26
2650,93;16,41
2649,00;16,54
2647,07;16,67
2645,14;16,79
2643,21;16,90
2641,28;17,01
2639,35;17,11
2637,42;17,21
2635,49;17,31
2633,56;17,40
2631,63;17,48
2629,70;17,57
2627,77;17,65
2625,84;17,73
2623,91;17,82
2621,98;17,90
2620,05;17,99
2618,12;18,08
2616,19;18,17
2614,26;18,26
2612,33;18,36
2610,40;18,46
2608,47;18,57
2606,54;18,68
2604,61;18,80
2602,68;18,93
2600,75;19,06
2598,82;19,21
2596,89;19,36
2594,96;19,52
2593,03;19,69
2591,10;19,86
2589,17;20,04
2587,24;20,23
2585,31;20,42
2583,38;20,62
2581,45;20,83
2579,52;21,03
2577,59;21,24
2575,66;21,45
2573,73;21,66
2571,80;21,87
2569,87;22,07
2567,94;22,26
2566,01;22,45
2564,08;22,63
2562,15;22,79
2560,22;22,95
2558,29;23,10
2556,36;23,25
2554,43;23,38
2552,50;23,50
2550,57;23,62
2548,64;23,74
2546,71;23,84
2544,78;23,94
2542,85;24,04
2540,92;24,14
2538,99;24,23
2537,06;24,32
2535,13;24,40
2533,20;24,49
2531,27;24,59
2529,34;24,69
2527,41;24,81
2525,48;24,93
2523,55;25,05
2521,62;25,17
2519,69;25,29
2517,76;25,41
2515,83;25,52
2513,90;25,63
2511,97;25,74
2510,04;25,84
2508,11;25,94
2506,18;26,04
2504,25;26,13
2502,32;26,22
2500,39;26,30
2498,46;26,38
2496,53;26,46
2494,60;26,53
2492,67;26,60
2490,74;26,67
2488,81;26,73
2486,88;26,78
2484,95;26,83
2483,02;26,88
2481,09;26,93
2479,16;26,97
2477,23;27,02
2475,30;27,06
2473,37;27,10
2471,44;27,14
2469,51;27,17
2467,58;27,20
2465,65;27,24
2463,72;27,26
2461,79;27,29
2459,86;27,31
2457,93;27,33
2456,00;27,35
2454,07;27,37
2452,14;27,38
2450,21;27,39
2448,28;27,40
2446,35;27,41
2444,42;27,42
2442,49;27,43
2440,56;27,43
2438,63;27,43
2436,70;27,42
2434,77;27,42
2432,84;27,41
2430,91;27,39
2428,98;27,37
2427,05;27,35
2425,12;27,35
2423,19;27,36
2421,26;27,37
2419,33;27,37
2417,40;27,36
2415,47;27,36
2413,54;27,36
2411,61;27,36
2409,68;27,36
2407,75;27,37
2405,82;27,38
2403,89;27,39
2401,96;27,40
2400,03;27,42
2398,10;27,45
2396,17;27,48
2394,24;27,50
2392,31;27,53
2390,38;27,56
2388,45;27,58
2386,52;27,60
2384,59;27,61
2382,66;27,61
2380,73;27,60
2378,80;27,59
2376,87;27,58
2374,94;27,59
2373,01;27,61
2371,08;27,63
2369,15;27,65
2367,22;27,66
2365,29;27,66
2363,36;27,66
2361,43;27,66
2359,50;27,65
2357,57;27,66
2355,64;27,66
2353,71;27,67
2351,78;27,67
2349,85;27,68
2347,92;27,72
2345,99;27,75
2344,06;27,74
2342,13;27,74
2340,20;27,73
2338,27;27,69
2336,34;27,64
2334,41;27,65
2332,48;27,74
2330,55;27,83
2328,62;27,91
2326,69;27,96
2324,76;27,99
2322,83;28,02
2320,90;28,06
2318,97;28,11
2317,04;28,17
2315,11;28,21
2313,18;28,25
2311,25;28,31
2309,32;28,37
2307,39;28,43
2305,46;28,50
2303,53;28,56
2301,60;28,62
2299,67;28,67
2297,74;28,73
2295,81;28,78
2293,88;28,83
2291,95;28,89
2290,02;28,94
2288,09;28,99
2286,16;29,04
2284,23;29,08
2282,30;29,13
2280,37;29,19
2278,44;29,25
2276,51;29,31
2274,58;29,36
2272,65;29,41
2270,72;29,45
2268,79;29,50
2266,86;29,54
2264,93;29,59
2263,00;29,63
2261,07;29,68
2259,14;29,73
2257,21;29,77
2255,28;29,81
2253,35;29,85
2251,42;29,89
2249,49;29,93
2247,56;29,97
2245,63;30,01
2243,70;30,04
2241,77;30,07
2239,84;30,10
2237,91;30,13
2235,98;30,16
2234,05;30,18
2232,12;30,21
2230,19;30,23
2228,26;30,25
2226,33;30,27
2224,40;30,29
2222,47;30,31
2220,54;30,32
2218,61;30,34
2216,68;30,36
2214,75;30,37
2212,82;30,39
2210,89;30,40
2208,96;30,41
2207,03;30,42
2205,10;30,43
2203,17;30,44
2201,24;30,46
2199,31;30,47
2197,38;30,48
2195,45;30,48
2193,52;30,49
2191,59;30,49
2189,66;30,50
2187,73;30,50
2185,80;30,52
2183,87;30,53
2181,94;30,56
2180,01;30,58
2178,08;30,61
2176,15;30,64
2174,22;30,67
2172,29;30,70
2170,36;30,74
2168,43;30,77
2166,50;30,79
2164,57;30,81
2162,64;30,84
2160,71;30,87
2158,78;30,90
2156,85;30,93
2154,92;30,96
2152,99;31,00
2151,06;31,05
2149,13;31,11
2147,20;31,18
2145,27;31,26
2143,34;31,35
2141,41;31,43
2139,48;31,51
2137,55;31,58
2135,62;31,65
2133,69;31,71
2131,76;31,76
2129,83;31,81
2127,90;31,85
2125,97;31,90
2124,04;31,94
2122,11;31,98
2120,18;32,02
2118,25;32,05
2116,32;32,09
2114,39;32,12
2112,46;32,16
2110,53;32,19
2108,60;32,23
2106,67;32,26
2104,74;32,30
2102,81;32,33
2100,88;32,36
2098,95;32,39
2097,02;32,42
2095,09;32,45
2093,16;32,47
2091,23;32,50
2089,30;32,53
2087,37;32,56
2085,44;32,60
2083,51;32,62
2081,58;32,65
2079,65;32,68
2077,72;32,70
2075,79;32,73
2073,86;32,75
2071,93;32,78
2070,00;32,80
2068,07;32,80
2066,14;32,82
2064,21;32,85
2062,28;32,87
2060,35;32,89
2058,42;32,90
2056,49;32,91
2054,56;32,92
2052,63;32,93
2050,70;32,93
2048,77;32,93
2046,84;32,93
2044,91;32,93
2042,98;32,92
2041,05;32,94
2039,12;32,95
2037,19;32,97
2035,26;32,98
2033,33;33,01
2031,40;33,04
2029,47;33,08
2027,54;33,13
2025,61;33,20
2023,68;33,28
2021,75;33,38
2019,82;33,48
2017,89;33,63
2015,96;33,80
2014,03;33,96
2012,10;34,10
2010,17;34,23
2008,24;34,34
2006,31;34,45
2004,38;34,54
2002,45;34,62
2000,52;34,70
1998,59;34,77
1996,66;34,82
1994,73;34,85
1992,80;34,91
1990,87;34,98
1988,94;35,05
1987,01;35,11
1985,08;35,16
1983,15;35,20
1981,22;35,25
1979,29;35,29
1977,36;35,33
1975,43;35,37
1973,50;35,41
1971,57;35,43
1969,64;35,44
1967,71;35,46
1965,78;35,53
1963,85;35,57
1961,92;35,59
1959,99;35,61
1958,06;35,63
1956,13;35,65
1954,20;35,68
1952,27;35,71
1950,34;35,73
1948,41;35,73
1946,48;35,71
1944,55;35,70
1942,62;35,72
1940,69;35,75
1938,76;35,76
1936,83;35,77
1934,90;35,80
1932,97;35,85
1931,04;35,88
1929,11;35,91
1927,18;35,91
1925,25;35,90
1923,32;35,90
1921,39;35,95
1919,46;35,98
1917,53;35,98
1915,60;36,00
1913,67;36,00
1911,74;35,96
1909,81;35,98
1907,88;36,02
1905,95;36,05
1904,02;36,06
1902,09;36,08
1900,16;36,10
1898,23;36,10
1896,30;36,11
1894,37;36,14
1892,44;36,15
1890,51;36,16
1888,58;36,20
1886,65;36,25
1884,72;36,26
1882,79;36,29
1880,86;36,31
1878,93;36,34
1877,00;36,38
1875,07;36,41
1873,14;36,41
1871,21;36,39
1869,28;36,42
1867,35;36,55
1865,42;36,66
1863,49;36,68
1861,56;36,70
1859,63;36,73
1857,70;36,78
1855,77;36,81
1853,84;36,84
1851,91;36,84
1849,98;36,81
1848,05;36,79
1846,12;36,86
1844,19;36,89
1842,26;36,95
1840,33;36,98
1838,40;36,94
1836,47;36,95
1834,54;36,92
1832,61;36,89
1830,68;36,84
1828,75;36,86
1826,82;36,90
1824,89;36,89
1822,96;36,89
1821,03;36,86
1819,10;36,80
1817,17;36,76
1815,24;36,68
1813,31;36,58
1811,38;36,50
1809,45;36,46
1807,52;36,36
1805,59;36,21
1803,66;35,99
1801,73;35,84
1799,80;35,69
1797,87;35,51
1795,94;35,31
1794,01;35,14
1792,08;34,96
1790,15;34,82
1788,22;34,62
1786,29;34,35
1784,36;34,03
1782,43;33,72
1780,50;33,38
1778,57;33,02
1776,64;32,61
1774,71;32,20
1772,78;31,77
1770,85;31,36
1768,92;30,89
1766,99;30,11
1765,06;29,14
1763,13;27,76
1761,20;25,80
1759,27;23,44
1757,34;20,59
1755,41;17,29
1753,48;14,26
1751,55;11,48
1749,62;9,51
1747,69;8,70
1745,76;8,96
1743,83;10,07
1741,90;11,83
1739,97;13,95
1738,04;16,03
1736,11;17,67
1734,18;19,19
1732,25;20,48
1730,32;21,34
1728,39;21,94
1726,46;22,38
1724,53;22,68
1722,60;22,86
1720,67;22,88
1718,74;22,64
1716,81;22,33
1714,88;21,96
1712,95;21,44
1711,02;20,88
1709,09;20,38
1707,16;20,02
1705,23;19,79
1703,30;19,80
1701,37;19,91
1699,44;20,03
1697,51;20,35
1695,58;20,66
1693,65;20,92
1691,72;21,07
1689,79;21,11
1687,86;21,11
1685,93;21,05
1684,00;20,99
1682,07;20,96
1680,14;20,79
1678,21;20,58
1676,28;20,32
1674,35;19,96
1672,42;19,68
1670,49;19,41
1668,56;19,14
1666,63;18,89
1664,70;18,65
1662,77;18,38
1660,84;18,14
1658,91;17,90
1656,98;17,65
1655,05;17,45
1653,12;17,28
1651,19;17,15
1649,26;17,11
1647,33;17,01
1645,40;16,95
1643,47;16,85
1641,54;16,70
1639,61;16,50
1637,68;16,33
1635,75;16,10
1633,82;15,75
1631,89;15,49
1629,96;15,51
1628,03;15,84
1626,10;16,30
1624,17;16,67
1622,24;16,95
1620,31;17,09
1618,38;17,15
1616,45;17,19
1614,52;17,27
1612,59;17,25
1610,66;17,14
1608,73;17,06
1606,80;17,07
1604,87;17,17
1602,94;17,34
1601,01;17,57
1599,08;17,84
1597,15;18,16
1595,22;18,50
1593,29;18,81
1591,36;19,09
1589,43;19,36
1587,50;19,64
1585,57;19,92
1583,64;20,18
1581,71;20,41
1579,78;20,59
1577,85;20,77
1575,92;21,06
1573,99;21,40
1572,06;21,63
1570,13;21,84
1568,20;22,09
1566,27;22,33
1564,34;22,50
1562,41;22,67
1560,48;22,76
1558,55;23,19
1556,62;23,52
1554,69;23,75
1552,76;23,93
1550,83;24,16
1548,90;24,39
1546,97;24,55
1545,04;24,60
1543,11;24,70
1541,18;24,83
1539,25;25,11
1537,32;25,21
1535,39;25,25
1533,46;25,20
1531,53;25,10
1529,60;24,89
1527,67;24,59
1525,74;24,27
1523,81;23,87
1521,88;23,37
1519,95;22,70
1518,02;22,06
1516,09;21,43
1514,16;21,09
1512,23;20,91
1510,30;20,76
1508,37;20,57
1506,44;20,48
1504,51;20,12
1502,58;19,73
1500,65;19,23
1498,72;18,60
1496,79;17,78
1494,86;16,75
1492,93;15,64
1491,00;14,29
1489,07;12,87
1487,14;11,54
1485,21;10,22
1483,28;8,82
1481,35;7,28
1479,42;5,68
1477,49;4,11
1475,56;2,62
1473,63;1,38
1471,70;0,48
1469,77;0,11
1467,84;0,02
1465,91;0,01
1463,98;0,01
1462,05;0,01
1460,12;0,01
1458,19;0,01
1456,26;0,01
1454,33;0,02
1452,40;0,03
1450,47;0,06
1448,54;0,11
1446,61;0,19
1444,68;0,30
1442,75;0,50
1440,82;0,75
1438,89;1,09
1436,96;1,64
1435,03;2,50
1433,10;3,61
1431,17;5,13
1429,24;6,90
1427,31;8,52
1425,38;9,81
1423,45;10,84
1421,52;11,54
1419,59;12,09
1417,66;12,61
1415,73;13,06
1413,80;13,41
1411,87;13,71
1409,94;13,90
1408,01;13,98
1406,08;13,95
1404,15;13,86
1402,22;13,68
1400,29;13,39
1398,36;12,90
1396,43;12,17
1394,50;11,05
1392,57;9,63
1390,64;8,09
1388,71;6,32
1386,78;4,34
1384,85;2,64
1382,92;1,51
1380,99;0,76
1379,06;0,32
1377,13;0,20
1375,20;0,37
1373,27;0,83
1371,34;1,37
1369,41;1,62
1367,48;1,59
1365,55;1,79
1363,62;2,68
1361,69;4,06
1359,76;5,31
1357,83;6,14
1355,90;6,61
1353,97;6,87
1352,04;7,12
1350,11;7,48
1348,18;7,94
1346,25;8,38
1344,32;8,69
1342,39;8,90
1340,46;9,21
1338,53;9,81
1336,60;10,57
1334,67;11,31
1332,74;11,96
1330,81;12,50
1328,88;12,92
1326,95;13,23
1325,02;13,42
1323,09;13,49
1321,16;13,43
1319,23;13,27
1317,30;13,07
1315,37;12,86
1313,44;12,70
1311,51;12,58
1309,58;12,48
1307,65;12,40
1305,72;12,35
1303,79;12,36
1301,86;12,46
1299,93;12,69
1298,00;13,01
1296,07;13,39
1294,14;13,76
1292,21;14,11
1290,28;14,41
1288,35;14,65
1286,42;14,84
1284,49;14,95
1282,56;14,99
1280,63;14,96
1278,70;14,91
1276,77;14,87
1274,84;14,91
1272,91;15,01
1270,98;15,17
1269,05;15,33
1267,12;15,49
1265,19;15,61
1263,26;15,70
1261,33;15,76
1259,40;15,84
1257,47;15,89
1255,54;15,90
1253,61;15,83
1251,68;15,69
1249,75;15,51
1247,82;15,30
1245,89;15,12
1243,96;14,99
1242,03;14,88
1240,10;14,74
1238,17;14,51
1236,24;14,19
1234,31;13,90
1232,38;13,74
1230,45;13,78
1228,52;13,98
1226,59;14,27
1224,66;14,57
1222,73;14,87
1220,80;15,14
1218,87;15,38
1216,94;15,58
1215,01;15,74
1213,08;15,84
1211,15;15,90
1209,22;15,91
1207,29;15,87
1205,36;15,80
1203,43;15,68
1201,50;15,56
1199,57;15,45
1197,64;15,33
1195,71;15,19
1193,78;15,05
1191,85;14,92
1189,92;14,81
1187,99;14,70
1186,06;14,53
1184,13;14,24
1182,20;13,82
1180,27;13,37
1178,34;12,97
1176,41;12,58
1174,48;12,13
1172,55;11,63
1170,62;11,20
1168,69;10,98
1166,76;10,95
1164,83;10,97
1162,90;10,97
1160,97;10,92
1159,04;10,90
1157,11;10,92
1155,18;11,04
1153,25;11,25
1151,32;11,56
1149,39;11,92
1147,46;12,31
1145,53;12,72
1143,60;13,16
1141,67;13,67
1139,74;14,25
1137,81;14,87
1135,88;15,48
1133,95;16,06
1132,02;16,55
1130,09;16,91
1128,16;17,11
1126,23;17,16
1124,30;17,10
1122,37;17,00
1120,44;16,95
1118,51;17,00
1116,58;17,13
1114,65;17,30
1112,72;17,47
1110,79;17,60
1108,86;17,67
1106,93;17,69
1105,00;17,69
1103,07;17,71
1101,14;17,72
1099,21;17,68
1097,28;17,58
1095,35;17,43
1093,42;17,27
1091,49;17,13
1089,56;17,01
1087,63;16,95
1085,70;16,97
1083,77;17,07
1081,84;17,22
1079,91;17,42
1077,98;17,67
1076,05;18,00
1074,12;18,44
1072,19;18,90
1070,26;19,30
1068,33;19,62
1066,40;19,90
1064,47;20,15
1062,54;20,43
1060,61;20,75
1058,68;21,10
1056,75;21,41
1054,82;21,65
1052,89;21,82
1050,96;21,92
1049,03;21,97
1047,10;21,99
1045,17;21,97
1043,24;21,94
1041,31;21,90
1039,38;21,87
1037,45;21,86
1035,52;21,90
1033,59;22,01
1031,66;22,18
1029,73;22,41
1027,80;22,65
1025,87;22,86
1023,94;23,03
1022,01;23,15
1020,08;23,25
1018,15;23,34
1016,22;23,40
1014,29;23,41
1012,36;23,38
1010,43;23,38
1008,50;23,48
1006,57;23,65
1004,64;23,80
1002,71;23,90
1000,78;23,96
998,85;24,02
996,92;24,12
994,99;24,25
993,06;24,39
991,13;24,54
989,20;24,64
987,27;24,70
985,34;24,70
983,41;24,66
981,48;24,58
979,55;24,48
977,62;24,34
975,69;24,17
973,76;24,00
971,83;23,87
969,90;23,77
967,97;23,73
966,04;23,80
964,11;24,06
962,18;24,48
960,25;24,95
958,32;25,36
956,39;25,64
954,46;25,85
952,53;26,07
950,60;26,34
948,67;26,61
946,74;26,84
944,81;27,03
942,88;27,22
940,95;27,37
939,02;27,50
937,09;27,61
935,16;27,75
933,23;27,94
931,30;28,16
929,37;28,39
927,44;28,58
925,51;28,69
923,58;28,70
921,65;28,60
919,72;28,52
917,79;28,66
915,86;29,06
913,93;29,49
912,00;29,79
910,07;29,93
908,14;30,01
906,21;30,07
904,28;30,05
902,35;29,92
900,42;29,62
898,49;29,18
896,56;28,64
894,63;28,09
892,70;27,58
890,77;27,22
888,84;27,14
886,91;27,39
884,98;27,76
883,05;28,09
881,12;28,32
879,19;28,49
877,26;28,63
875,33;28,74
873,40;28,78
871,47;28,78
869,54;28,73
867,61;28,67
865,68;28,60
863,75;28,53
861,82;28,49
859,89;28,47
857,96;28,44
856,03;28,37
854,10;28,28
852,17;28,17
850,24;28,06
848,31;27,99
846,38;27,97
844,45;28,00
842,52;28,08
840,59;28,19
838,66;28,25
836,73;28,19
834,80;28,02
832,87;27,81
830,94;27,63
829,01;27,44
827,08;27,22
825,15;26,93
823,22;26,61
821,29;26,25
819,36;25,91
817,43;25,62
815,50;25,44
813,57;25,44
811,64;25,55
809,71;25,68
807,78;25,74
805,85;25,79
803,92;26,01
801,99;26,37
800,06;26,70
798,13;26,84
796,20;26,78
794,27;26,62
792,34;26,41
790,41;26,12
788,48;25,70
786,55;25,14
784,62;24,42
782,69;23,68
780,76;23,04
778,83;22,54
776,90;22,06
774,97;21,60
773,04;21,15
771,11;20,78
769,18;20,49
767,25;20,35
765,32;20,36
763,39;20,46
761,46;20,47
759,53;20,34
757,60;20,07
755,67;19,68
753,74;19,20
751,81;18,73
749,88;18,31
747,95;17,92
746,02;17,42
744,09;16,76
742,16;16,00
740,23;15,32
738,30;14,82
736,37;14,38
734,44;13,82
732,51;13,03
730,58;11,93
728,65;10,58
726,72;9,19
724,79;7,89
722,86;7,04
720,93;7,24
719,00;8,81
717,07;11,26
715,14;13,82
713,21;16,10
711,28;18,09
709,35;19,78
707,42;21,17
705,49;22,21
703,56;22,95
701,63;23,40
699,70;23,72
697,77;24,28
695,84;25,20
693,91;26,14
691,98;26,84
690,05;27,32
688,12;27,73
686,19;28,09
684,26;28,38
682,33;28,58
680,40;28,71
678,47;28,79
676,54;28,83
674,61;28,84
672,68;28,85
670,75;28,84
668,82;28,80
666,89;28,88
664,96;28,90
663,03;28,89
661,10;28,90
659,17;28,96
657,24;29,06
655,31;29,20
653,38;29,34
651,45;29,49
649,52;29,63
647,59;29,78
645,66;29,94
643,73;30,10
641,80;30,22
639,87;30,32
637,94;30,37
636,01;30,42
634,08;30,48
632,15;30,52
630,22;30,54
628,29;30,55
626,36;30,58
624,43;30,64
622,50;30,69
620,57;30,70
618,64;30,69
616,71;30,67
614,78;30,67
612,85;30,64
610,92;30,61
608,99;30,55
607,06;30,46
605,13;30,34
603,20;30,27
601,27;30,28
599,34;30,44
597,41;30,67
595,48;30,90
593,55;31,06
591,62;31,20
589,69;31,34
587,76;31,45
585,83;31,54
583,90;31,64
581,97;31,74
580,04;31,85
578,11;31,95
576,18;32,04
574,25;32,17
572,32;32,25
570,39;32,31
568,46;32,38
566,53;32,46
564,60;32,54
562,67;32,66
560,74;32,79
558,81;32,94
556,88;33,06
554,95;33,19
553,02;33,30
551,09;33,44
549,16;33,58
547,23;33,77
545,30;33,97
543,37;34,19
541,44;34,34
539,51;34,47
537,58;34,60
535,65;34,80
533,72;34,99
531,79;35,16
529,86;35,30
527,93;35,44
526,00;35,60
524,07;35,80
522,14;35,92
520,21;36,03
518,28;36,22
516,35;36,48
514,42;36,75
512,49;37,00
510,56;37,24
508,63;37,41
506,70;37,60
504,77;37,78
502,84;37,96
500,91;38,13
