Created as New Dataset;Amostra 399 por Laboratório data segunda-feira, setembro 23 2024
cm-1;%T
4000,00;18,24
3998,07;18,27
3996,14;18,31
3994,21;18,35
3992,28;18,40
3990,35;18,45
3988,42;18,50
3986,49;18,55
3984,56;18,61
3982,63;18,66
3980,70;18,71
3978,77;18,76
3976,84;18,80
3974,91;18,84
3972,98;18,88
3971,05;18,91
3969,12;18,94
3967,19;18,97
3965,26;18,99
3963,33;19,02
3961,40;19,04
3959,47;19,06
3957,54;19,08
3955,61;19,09
3953,68;19,11
3951,75;19,13
3949,82;19,15
3947,89;19,16
3945,96;19,18
3944,03;19,19
3942,10;19,20
3940,17;19,21
3938,24;19,22
3936,31;19,22
3934,38;19,23
3932,45;19,24
3930,52;19,25
3928,59;19,26
3926,66;19,27
3924,73;19,27
3922,80;19,28
3920,87;19,29
3918,94;19,31
3917,01;19,32
3915,08;19,33
3913,15;19,33
3911,22;19,33
3909,29;19,33
3907,36;19,34
3905,43;19,36
3903,50;19,39
3901,57;19,41
3899,64;19,43
3897,71;19,43
3895,78;19,43
3893,85;19,43
3891,92;19,44
3889,99;19,45
3888,06;19,46
3886,13;19,48
3884,20;19,48
3882,27;19,50
3880,34;19,51
3878,41;19,52
3876,48;19,52
3874,55;19,52
3872,62;19,53
3870,69;19,56
3868,76;19,58
3866,83;19,59
3864,90;19,60
3862,97;19,60
3861,04;19,61
3859,11;19,61
3857,18;19,60
3855,25;19,59
3853,32;19,62
3851,39;19,65
3849,46;19,65
3847,53;19,64
3845,60;19,63
3843,67;19,62
3841,74;19,62
3839,81;19,63
3837,88;19,64
3835,95;19,65
3834,02;19,65
3832,09;19,65
3830,16;19,64
3828,23;19,63
3826,30;19,62
3824,37;19,62
3822,44;19,63
3820,51;19,63
3818,58;19,65
3816,65;19,66
3814,72;19,66
3812,79;19,66
3810,86;19,66
3808,93;19,66
3807,00;19,67
3805,07;19,68
3803,14;19,69
3801,21;19,70
3799,28;19,71
3797,35;19,71
3795,42;19,71
3793,49;19,70
3791,56;19,69
3789,63;19,67
3787,70;19,67
3785,77;19,66
3783,84;19,66
3781,91;19,66
3779,98;19,67
3778,05;19,67
3776,12;19,67
3774,19;19,66
3772,26;19,65
3770,33;19,65
3768,40;19,65
3766,47;19,64
3764,54;19,63
3762,61;19,61
3760,68;19,60
3758,75;19,59
3756,82;19,57
3754,89;19,56
3752,96;19,55
3751,03;19,54
3749,10;19,54
3747,17;19,52
3745,24;19,50
3743,31;19,47
3741,38;19,43
3739,45;19,39
3737,52;19,36
3735,59;19,32
3733,66;19,28
3731,73;19,24
3729,80;19,19
3727,87;19,14
3725,94;19,08
3724,01;19,02
3722,08;18,97
3720,15;18,91
3718,22;18,84
3716,29;18,77
3714,36;18,69
3712,43;18,61
3710,50;18,51
3708,57;18,41
3706,64;18,29
3704,71;18,16
3702,78;18,03
3700,85;17,88
3698,92;17,73
3696,99;17,56
3695,06;17,40
3693,13;17,22
3691,20;17,04
3689,27;16,84
3687,34;16,63
3685,41;16,41
3683,48;16,19
3681,55;15,95
3679,62;15,70
3677,69;15,45
3675,76;15,18
3673,83;14,89
3671,90;14,62
3669,97;14,31
3668,04;13,98
3666,11;13,67
3664,18;13,35
3662,25;13,03
3660,32;12,72
3658,39;12,41
3656,46;12,09
3654,53;11,77
3652,60;11,47
3650,67;11,16
3648,74;10,84
3646,81;10,53
3644,88;10,24
3642,95;9,97
3641,02;9,71
3639,09;9,46
3637,16;9,23
3635,23;9,01
3633,30;8,80
3631,37;8,60
3629,44;8,39
3627,51;8,16
3625,58;7,96
3623,65;7,76
3621,72;7,57
3619,79;7,38
3617,86;7,19
3615,93;7,02
3614,00;6,85
3612,07;6,68
3610,14;6,51
3608,21;6,35
3606,28;6,18
3604,35;6,03
3602,42;5,89
3600,49;5,76
3598,56;5,63
3596,63;5,50
3594,70;5,37
3592,77;5,24
3590,84;5,12
3588,91;4,99
3586,98;4,85
3585,05;4,72
3583,12;4,60
3581,19;4,48
3579,26;4,36
3577,33;4,24
3575,40;4,12
3573,47;4,00
3571,54;3,89
3569,61;3,79
3567,68;3,68
3565,75;3,57
3563,82;3,47
3561,89;3,36
3559,96;3,27
3558,03;3,18
3556,10;3,08
3554,17;3,00
3552,24;2,91
3550,31;2,82
3548,38;2,74
3546,45;2,65
3544,52;2,58
3542,59;2,51
3540,66;2,44
3538,73;2,37
3536,80;2,30
3534,87;2,24
3532,94;2,18
3531,01;2,12
3529,08;2,06
3527,15;2,01
3525,22;1,95
3523,29;1,89
3521,36;1,85
3519,43;1,80
3517,50;1,75
3515,57;1,70
3513,64;1,65
3511,71;1,61
3509,78;1,57
3507,85;1,53
3505,92;1,49
3503,99;1,44
3502,06;1,40
3500,13;1,37
3498,20;1,33
3496,27;1,30
3494,34;1,27
3492,41;1,24
3490,48;1,21
3488,55;1,18
3486,62;1,15
3484,69;1,13
3482,76;1,10
3480,83;1,08
3478,90;1,05
3476,97;1,03
3475,04;1,01
3473,11;0,99
3471,18;0,97
3469,25;0,94
3467,32;0,92
3465,39;0,91
3463,46;0,90
3461,53;0,88
3459,60;0,87
3457,67;0,86
3455,74;0,84
3453,81;0,83
3451,88;0,82
3449,95;0,80
3448,02;0,79
3446,09;0,78
3444,16;0,77
3442,23;0,76
3440,30;0,75
3438,37;0,73
3436,44;0,72
3434,51;0,71
3432,58;0,70
3430,65;0,70
3428,72;0,69
3426,79;0,69
3424,86;0,68
3422,93;0,68
3421,00;0,67
3419,07;0,67
3417,14;0,67
3415,21;0,66
3413,28;0,65
3411,35;0,65
3409,42;0,65
3407,49;0,65
3405,56;0,65
3403,63;0,65
3401,70;0,64
3399,77;0,64
3397,84;0,65
3395,91;0,66
3393,98;0,66
3392,05;0,66
3390,12;0,66
3388,19;0,67
3386,26;0,68
3384,33;0,68
3382,40;0,69
3380,47;0,69
3378,54;0,70
3376,61;0,71
3374,68;0,72
3372,75;0,72
3370,82;0,73
3368,89;0,73
3366,96;0,74
3365,03;0,76
3363,10;0,77
3361,17;0,78
3359,24;0,80
3357,31;0,81
3355,38;0,82
3353,45;0,83
3351,52;0,84
3349,59;0,85
3347,66;0,87
3345,73;0,89
3343,80;0,90
3341,87;0,91
3339,94;0,93
3338,01;0,94
3336,08;0,96
3334,15;0,98
3332,22;1,00
3330,29;1,02
3328,36;1,03
3326,43;1,05
3324,50;1,07
3322,57;1,08
3320,64;1,10
3318,71;1,12
3316,78;1,14
3314,85;1,16
3312,92;1,17
3310,99;1,19
3309,06;1,20
3307,13;1,22
3305,20;1,24
3303,27;1,26
3301,34;1,29
3299,41;1,31
3297,48;1,32
3295,55;1,34
3293,62;1,36
3291,69;1,38
3289,76;1,40
3287,83;1,42
3285,90;1,44
3283,97;1,46
3282,04;1,48
3280,11;1,50
3278,18;1,53
3276,25;1,55
3274,32;1,57
3272,39;1,59
3270,46;1,61
3268,53;1,64
3266,60;1,66
3264,67;1,69
3262,74;1,72
3260,81;1,74
3258,88;1,77
3256,95;1,80
3255,02;1,83
3253,09;1,86
3251,16;1,89
3249,23;1,92
3247,30;1,95
3245,37;1,99
3243,44;2,02
3241,51;2,06
3239,58;2,10
3237,65;2,14
3235,72;2,17
3233,79;2,21
3231,86;2,26
3229,93;2,30
3228,00;2,34
3226,07;2,39
3224,14;2,44
3222,21;2,48
3220,28;2,53
3218,35;2,58
3216,42;2,63
3214,49;2,68
3212,56;2,73
3210,63;2,78
3208,70;2,84
3206,77;2,89
3204,84;2,95
3202,91;3,01
3200,98;3,07
3199,05;3,13
3197,12;3,19
3195,19;3,26
3193,26;3,33
3191,33;3,40
3189,40;3,47
3187,47;3,55
3185,54;3,63
3183,61;3,71
3181,68;3,79
3179,75;3,88
3177,82;3,97
3175,89;4,07
3173,96;4,17
3172,03;4,26
3170,10;4,36
3168,17;4,47
3166,24;4,58
3164,31;4,69
3162,38;4,80
3160,45;4,91
3158,52;5,03
3156,59;5,14
3154,66;5,26
3152,73;5,38
3150,80;5,51
3148,87;5,63
3146,94;5,76
3145,01;5,89
3143,08;6,02
3141,15;6,14
3139,22;6,27
3137,29;6,41
3135,36;6,54
3133,43;6,67
3131,50;6,80
3129,57;6,93
3127,64;7,06
3125,71;7,19
3123,78;7,32
3121,85;7,44
3119,92;7,57
3117,99;7,69
3116,06;7,82
3114,13;7,94
3112,20;8,06
3110,27;8,17
3108,34;8,28
3106,41;8,39
3104,48;8,50
3102,55;8,60
3100,62;8,71
3098,69;8,80
3096,76;8,90
3094,83;8,98
3092,90;9,06
3090,97;9,12
3089,04;9,18
3087,11;9,22
3085,18;9,27
3083,25;9,30
3081,32;9,33
3079,39;9,36
3077,46;9,37
3075,53;9,38
3073,60;9,38
3071,67;9,37
3069,74;9,36
3067,81;9,34
3065,88;9,32
3063,95;9,30
3062,02;9,28
3060,09;9,26
3058,16;9,25
3056,23;9,23
3054,30;9,20
3052,37;9,16
3050,44;9,11
3048,51;9,05
3046,58;8,98
3044,65;8,89
3042,72;8,80
3040,79;8,69
3038,86;8,57
3036,93;8,43
3035,00;8,26
3033,07;8,08
3031,14;7,87
3029,21;7,64
3027,28;7,41
3025,35;7,16
3023,42;6,89
3021,49;6,61
3019,56;6,31
3017,63;5,99
3015,70;5,65
3013,77;5,30
3011,84;4,93
3009,91;4,54
3007,98;4,14
3006,05;3,72
3004,12;3,30
3002,19;2,87
3000,26;2,46
2998,33;2,06
2996,40;1,69
2994,47;1,35
2992,54;1,06
2990,61;0,81
2988,68;0,60
2986,75;0,42
2984,82;0,29
2982,89;0,18
2980,96;0,11
2979,03;0,06
2977,10;0,04
2975,17;0,03
2973,24;0,03
2971,31;0,02
2969,38;0,02
2967,45;0,02
2965,52;0,02
2963,59;0,02
2961,66;0,02
2959,73;0,02
2957,80;0,01
2955,87;0,01
2953,94;0,01
2952,01;0,01
2950,08;0,01
2948,15;0,01
2946,22;0,01
2944,29;0,01
2942,36;0,01
2940,43;0,01
2938,50;0,01
2936,57;0,01
2934,64;0,01
2932,71;0,01
2930,78;0,01
2928,85;0,01
2926,92;0,01
2924,99;0,01
2923,06;0,01
2921,13;0,01
2919,20;0,01
2917,27;0,01
2915,34;0,01
2913,41;0,01
2911,48;0,01
2909,55;0,01
2907,62;0,01
2905,69;0,01
2903,76;0,01
2901,83;0,01
2899,90;0,01
2897,97;0,01
2896,04;0,01
2894,11;0,01
2892,18;0,01
2890,25;0,01
2888,32;0,01
2886,39;0,01
2884,46;0,01
2882,53;0,01
2880,60;0,01
2878,67;0,01
2876,74;0,01
2874,81;0,01
2872,88;0,01
2870,95;0,01
2869,02;0,01
2867,09;0,01
2865,16;0,01
2863,23;0,02
2861,30;0,02
2859,37;0,02
2857,44;0,02
2855,51;0,02
2853,58;0,02
2851,65;0,02
2849,72;0,02
2847,79;0,02
2845,86;0,02
2843,93;0,02
2842,00;0,02
2840,07;0,02
2838,14;0,03
2836,21;0,05
2834,28;0,10
2832,35;0,20
2830,42;0,35
2828,49;0,56
2826,56;0,82
2824,63;1,12
2822,70;1,45
2820,77;1,81
2818,84;2,20
2816,91;2,61
2814,98;3,04
2813,05;3,49
2811,12;3,97
2809,19;4,47
2807,26;4,98
2805,33;5,51
2803,40;6,04
2801,47;6,58
2799,54;7,11
2797,61;7,64
2795,68;8,17
2793,75;8,71
2791,82;9,25
2789,89;9,79
2787,96;10,35
2786,03;10,91
2784,10;11,48
2782,17;12,04
2780,24;12,59
2778,31;13,13
2776,38;13,63
2774,45;14,10
2772,52;14,52
2770,59;14,91
2768,66;15,25
2766,73;15,55
2764,80;15,79
2762,87;15,99
2760,94;16,15
2759,01;16,29
2757,08;16,42
2755,15;16,54
2753,22;16,63
2751,29;16,69
2749,36;16,71
2747,43;16,68
2745,50;16,61
2743,57;16,50
2741,64;16,34
2739,71;16,11
2737,78;15,83
2735,85;15,48
2733,92;15,11
2731,99;14,76
2730,06;14,53
2728,13;14,45
2726,20;14,52
2724,27;14,67
2722,34;14,87
2720,41;15,11
2718,48;15,39
2716,55;15,72
2714,62;16,10
2712,69;16,50
2710,76;16,87
2708,83;17,19
2706,90;17,45
2704,97;17,64
2703,04;17,77
2701,11;17,84
2699,18;17,87
2697,25;17,86
2695,32;17,81
2693,39;17,73
2691,46;17,64
2689,53;17,54
2687,60;17,47
2685,67;17,42
2683,74;17,40
2681,81;17,39
2679,88;17,40
2677,95;17,42
2676,02;17,43
2674,09;17,45
2672,16;17,48
2670,23;17,54
2668,30;17,66
2666,37;17,83
2664,44;18,03
2662,51;18,25
2660,58;18,48
2658,65;18,71
2656,72;18,94
2654,79;19,15
2652,86;19,35
2650,93;19,53
2649,00;19,69
2647,07;19,85
2645,14;19,99
2643,21;20,13
2641,28;20,26
2639,35;20,38
2637,42;20,50
2635,49;20,61
2633,56;20,72
2631,63;20,82
2629,70;20,92
2627,77;21,02
2625,84;21,11
2623,91;21,21
2621,98;21,31
2620,05;21,41
2618,12;21,52
2616,19;21,62
2614,26;21,74
2612,33;21,85
2610,40;21,97
2608,47;22,10
2606,54;22,23
2604,61;22,38
2602,68;22,53
2600,75;22,69
2598,82;22,87
2596,89;23,05
2594,96;23,25
2593,03;23,45
2591,10;23,67
2589,17;23,88
2587,24;24,11
2585,31;24,35
2583,38;24,59
2581,45;24,84
2579,52;25,09
2577,59;25,34
2575,66;25,60
2573,73;25,85
2571,80;26,10
2569,87;26,34
2567,94;26,58
2566,01;26,80
2564,08;27,01
2562,15;27,21
2560,22;27,40
2558,29;27,58
2556,36;27,75
2554,43;27,91
2552,50;28,05
2550,57;28,19
2548,64;28,32
2546,71;28,45
2544,78;28,57
2542,85;28,68
2540,92;28,79
2538,99;28,90
2537,06;28,99
2535,13;29,09
2533,20;29,19
2531,27;29,30
2529,34;29,42
2527,41;29,55
2525,48;29,69
2523,55;29,83
2521,62;29,97
2519,69;30,10
2517,76;30,24
2515,83;30,37
2513,90;30,49
2511,97;30,62
2510,04;30,73
2508,11;30,85
2506,18;30,95
2504,25;31,05
2502,32;31,15
2500,39;31,25
2498,46;31,34
2496,53;31,42
2494,60;31,50
2492,67;31,58
2490,74;31,65
2488,81;31,71
2486,88;31,78
2484,95;31,83
2483,02;31,88
2481,09;31,93
2479,16;31,98
2477,23;32,02
2475,30;32,06
2473,37;32,10
2471,44;32,14
2469,51;32,18
2467,58;32,21
2465,65;32,24
2463,72;32,26
2461,79;32,28
2459,86;32,30
2457,93;32,32
2456,00;32,33
2454,07;32,34
2452,14;32,35
2450,21;32,36
2448,28;32,36
2446,35;32,37
2444,42;32,36
2442,49;32,36
2440,56;32,35
2438,63;32,34
2436,70;32,33
2434,77;32,31
2432,84;32,29
2430,91;32,27
2428,98;32,25
2427,05;32,22
2425,12;32,21
2423,19;32,20
2421,26;32,19
2419,33;32,17
2417,40;32,16
2415,47;32,14
2413,54;32,12
2411,61;32,11
2409,68;32,11
2407,75;32,10
2405,82;32,10
2403,89;32,11
2401,96;32,11
2400,03;32,13
2398,10;32,15
2396,17;32,17
2394,24;32,19
2392,31;32,22
2390,38;32,24
2388,45;32,25
2386,52;32,27
2384,59;32,29
2382,66;32,30
2380,73;32,31
2378,80;32,32
2376,87;32,32
2374,94;32,33
2373,01;32,34
2371,08;32,12
2369,15;32,15
2367,22;32,15
2365,29;32,13
2363,36;32,11
2361,43;32,09
2359,50;32,07
2357,57;32,05
2355,64;32,03
2353,71;32,02
2351,78;32,01
2349,85;32,01
2347,92;32,03
2345,99;32,00
2344,06;31,97
2342,13;31,97
2340,20;31,94
2338,27;31,84
2336,34;31,73
2334,41;31,73
2332,48;31,86
2330,55;32,02
2328,62;32,13
2326,69;32,19
2324,76;32,22
2322,83;32,24
2320,90;32,28
2318,97;32,35
2317,04;32,41
2315,11;32,45
2313,18;32,49
2311,25;32,54
2309,32;32,61
2307,39;32,67
2305,46;32,74
2303,53;32,79
2301,60;32,85
2299,67;32,90
2297,74;32,95
2295,81;32,99
2293,88;33,04
2291,95;33,08
2290,02;33,13
2288,09;33,17
2286,16;33,21
2284,23;33,25
2282,30;33,29
2280,37;33,33
2278,44;33,38
2276,51;33,43
2274,58;33,48
2272,65;33,52
2270,72;33,55
2268,79;33,59
2266,86;33,63
2264,93;33,66
2263,00;33,70
2261,07;33,74
2259,14;33,77
2257,21;33,81
2255,28;33,84
2253,35;33,88
2251,42;33,91
2249,49;33,94
2247,56;33,96
2245,63;33,99
2243,70;34,01
2241,77;34,03
2239,84;34,05
2237,91;34,07
2235,98;34,08
2234,05;34,09
2232,12;34,10
2230,19;34,11
2228,26;34,12
2226,33;34,12
2224,40;34,13
2222,47;34,13
2220,54;34,14
2218,61;34,14
2216,68;34,14
2214,75;34,14
2212,82;34,14
2210,89;34,13
2208,96;34,13
2207,03;34,13
2205,10;34,13
2203,17;34,13
2201,24;34,13
2199,31;34,12
2197,38;34,12
2195,45;34,11
2193,52;34,10
2191,59;34,09
2189,66;34,08
2187,73;34,07
2185,80;34,07
2183,87;34,07
2181,94;34,08
2180,01;34,10
2178,08;34,12
2176,15;34,13
2174,22;34,15
2172,29;34,17
2170,36;34,20
2168,43;34,22
2166,50;34,24
2164,57;34,26
2162,64;34,28
2160,71;34,30
2158,78;34,33
2156,85;34,35
2154,92;34,38
2152,99;34,41
2151,06;34,46
2149,13;34,51
2147,20;34,58
2145,27;34,67
2143,34;34,76
2141,41;34,85
2139,48;34,93
2137,55;35,00
2135,62;35,07
2133,69;35,13
2131,76;35,18
2129,83;35,23
2127,90;35,28
2125,97;35,32
2124,04;35,37
2122,11;35,41
2120,18;35,45
2118,25;35,49
2116,32;35,53
2114,39;35,57
2112,46;35,61
2110,53;35,65
2108,60;35,69
2106,67;35,73
2104,74;35,77
2102,81;35,81
2100,88;35,85
2098,95;35,89
2097,02;35,93
2095,09;35,97
2093,16;36,01
2091,23;36,05
2089,30;36,09
2087,37;36,13
2085,44;36,17
2083,51;36,20
2081,58;36,24
2079,65;36,27
2077,72;36,31
2075,79;36,34
2073,86;36,38
2071,93;36,41
2070,00;36,44
2068,07;36,46
2066,14;36,50
2064,21;36,53
2062,28;36,55
2060,35;36,57
2058,42;36,59
2056,49;36,61
2054,56;36,62
2052,63;36,63
2050,70;36,64
2048,77;36,65
2046,84;36,66
2044,91;36,67
2042,98;36,68
2041,05;36,70
2039,12;36,71
2037,19;36,73
2035,26;36,76
2033,33;36,80
2031,40;36,84
2029,47;36,89
2027,54;36,95
2025,61;37,04
2023,68;37,14
2021,75;37,26
2019,82;37,39
2017,89;37,57
2015,96;37,76
2014,03;37,93
2012,10;38,08
2010,17;38,23
2008,24;38,37
2006,31;38,49
2004,38;38,59
2002,45;38,68
2000,52;38,77
1998,59;38,85
1996,66;38,93
1994,73;38,99
1992,80;39,08
1990,87;39,15
1988,94;39,19
1987,01;39,24
1985,08;39,29
1983,15;39,33
1981,22;39,37
1979,29;39,42
1977,36;39,46
1975,43;39,50
1973,50;39,54
1971,57;39,58
1969,64;39,60
1967,71;39,65
1965,78;39,70
1963,85;39,71
1961,92;39,73
1959,99;39,75
1958,06;39,76
1956,13;39,78
1954,20;39,81
1952,27;39,83
1950,34;39,84
1948,41;39,86
1946,48;39,90
1944,55;39,91
1942,62;39,94
1940,69;39,91
1938,76;39,86
1936,83;39,86
1934,90;39,90
1932,97;39,95
1931,04;39,98
1929,11;40,01
1927,18;40,03
1925,25;40,04
1923,32;40,13
1921,39;40,20
1919,46;40,18
1917,53;40,19
1915,60;40,15
1913,67;40,11
1911,74;40,09
1909,81;40,12
1907,88;40,15
1905,95;40,15
1904,02;40,15
1902,09;40,17
1900,16;40,18
1898,23;40,18
1896,30;40,20
1894,37;40,26
1892,44;40,27
1890,51;40,28
1888,58;40,31
1886,65;40,29
1884,72;40,29
1882,79;40,30
1880,86;40,32
1878,93;40,34
1877,00;40,38
1875,07;40,43
1873,14;40,52
1871,21;40,54
1869,28;40,62
1867,35;40,70
1865,42;40,68
1863,49;40,65
1861,56;40,66
1859,63;40,68
1857,70;40,71
1855,77;40,72
1853,84;40,74
1851,91;40,75
1849,98;40,79
1848,05;40,90
1846,12;40,95
1844,19;41,01
1842,26;40,97
1840,33;40,85
1838,40;40,81
1836,47;40,82
1834,54;40,86
1832,61;40,84
1830,68;40,86
1828,75;40,94
1826,82;40,86
1824,89;40,80
1822,96;40,70
1821,03;40,61
1819,10;40,54
1817,17;40,49
1815,24;40,41
1813,31;40,32
1811,38;40,26
1809,45;40,20
1807,52;40,07
1805,59;39,95
1803,66;39,80
1801,73;39,65
1799,80;39,46
1797,87;39,26
1795,94;39,13
1794,01;38,99
1792,08;38,88
1790,15;38,64
1788,22;38,35
1786,29;38,11
1784,36;37,84
1782,43;37,50
1780,50;37,21
1778,57;36,89
1776,64;36,59
1774,71;36,26
1772,78;36,14
1770,85;35,98
1768,92;35,61
1766,99;35,20
1765,06;34,76
1763,13;34,20
1761,20;33,46
1759,27;32,38
1757,34;30,93
1755,41;28,96
1753,48;26,67
1751,55;24,03
1749,62;21,44
1747,69;19,47
1745,76;18,35
1743,83;18,03
1741,90;18,28
1739,97;18,91
1738,04;19,72
1736,11;20,28
1734,18;20,95
1732,25;21,48
1730,32;21,78
1728,39;22,08
1726,46;22,41
1724,53;22,79
1722,60;23,19
1720,67;23,35
1718,74;23,24
1716,81;23,08
1714,88;22,54
1712,95;21,81
1711,02;21,12
1709,09;20,56
1707,16;20,10
1705,23;19,87
1703,30;19,78
1701,37;19,67
1699,44;19,62
1697,51;19,58
1695,58;19,68
1693,65;19,70
1691,72;19,59
1689,79;19,53
1687,86;19,39
1685,93;19,20
1684,00;19,13
1682,07;18,79
1680,14;18,41
1678,21;18,10
1676,28;17,72
1674,35;17,32
1672,42;16,92
1670,49;16,57
1668,56;16,20
1666,63;15,84
1664,70;15,52
1662,77;15,25
1660,84;14,97
1658,91;14,75
1656,98;14,59
1655,05;14,35
1653,12;14,27
1651,19;14,16
1649,26;14,01
1647,33;13,94
1645,40;13,88
1643,47;13,77
1641,54;13,71
1639,61;13,68
1637,68;13,66
1635,75;13,64
1633,82;13,47
1631,89;13,33
1629,96;13,50
1628,03;13,98
1626,10;14,53
1624,17;14,98
1622,24;15,39
1620,31;15,62
1618,38;15,77
1616,45;16,07
1614,52;16,28
1612,59;16,34
1610,66;16,36
1608,73;16,40
1606,80;16,53
1604,87;16,76
1602,94;17,08
1601,01;17,45
1599,08;17,84
1597,15;18,28
1595,22;18,74
1593,29;19,15
1591,36;19,49
1589,43;19,82
1587,50;20,13
1585,57;20,43
1583,64;20,70
1581,71;20,96
1579,78;21,13
1577,85;21,25
1575,92;21,66
1573,99;22,00
1572,06;22,16
1570,13;22,37
1568,20;22,57
1566,27;22,71
1564,34;22,94
1562,41;23,26
1560,48;23,45
1558,55;24,05
1556,62;24,12
1554,69;24,16
1552,76;24,30
1550,83;24,47
1548,90;24,69
1546,97;24,87
1545,04;25,05
1543,11;25,16
1541,18;25,19
1539,25;25,39
1537,32;25,42
1535,39;25,34
1533,46;25,29
1531,53;25,10
1529,60;24,86
1527,67;24,60
1525,74;24,30
1523,81;23,83
1521,88;23,31
1519,95;22,55
1518,02;21,70
1516,09;20,97
1514,16;20,57
1512,23;20,46
1510,30;20,45
1508,37;20,30
1506,44;20,15
1504,51;19,64
1502,58;19,18
1500,65;18,68
1498,72;18,01
1496,79;17,11
1494,86;16,06
1492,93;14,97
1491,00;13,67
1489,07;12,24
1487,14;10,85
1485,21;9,55
1483,28;8,22
1481,35;6,79
1479,42;5,28
1477,49;3,80
1475,56;2,41
1473,63;1,25
1471,70;0,44
1469,77;0,10
1467,84;0,02
1465,91;0,01
1463,98;0,01
1462,05;0,01
1460,12;0,01
1458,19;0,02
1456,26;0,01
1454,33;0,02
1452,40;0,03
1450,47;0,06
1448,54;0,10
1446,61;0,17
1444,68;0,27
1442,75;0,45
1440,82;0,69
1438,89;1,03
1436,96;1,56
1435,03;2,38
1433,10;3,45
1431,17;4,89
1429,24;6,57
1427,31;8,10
1425,38;9,34
1423,45;10,40
1421,52;11,18
1419,59;11,85
1417,66;12,41
1415,73;12,79
1413,80;13,06
1411,87;13,29
1409,94;13,42
1408,01;13,48
1406,08;13,46
1404,15;13,40
1402,22;13,26
1400,29;13,03
1398,36;12,61
1396,43;11,89
1394,50;10,73
1392,57;9,28
1390,64;7,83
1388,71;6,24
1386,78;4,40
1384,85;2,74
1382,92;1,56
1380,99;0,76
1379,06;0,31
1377,13;0,19
1375,20;0,35
1373,27;0,80
1371,34;1,32
1369,41;1,56
1367,48;1,49
1365,55;1,67
1363,62;2,56
1361,69;3,98
1359,76;5,29
1357,83;6,18
1355,90;6,69
1353,97;6,97
1352,04;7,24
1350,11;7,63
1348,18;8,14
1346,25;8,62
1344,32;8,97
1342,39;9,20
1340,46;9,53
1338,53;10,12
1336,60;10,86
1334,67;11,61
1332,74;12,31
1330,81;12,91
1328,88;13,41
1326,95;13,79
1325,02;14,05
1323,09;14,19
1321,16;14,19
1319,23;14,07
1317,30;13,88
1315,37;13,66
1313,44;13,47
1311,51;13,31
1309,58;13,17
1307,65;13,07
1305,72;13,02
1303,79;13,04
1301,86;13,15
1299,93;13,39
1298,00;13,75
1296,07;14,16
1294,14;14,58
1292,21;14,96
1290,28;15,30
1288,35;15,58
1286,42;15,81
1284,49;15,97
1282,56;16,05
1280,63;16,04
1278,70;15,96
1276,77;15,87
1274,84;15,83
1272,91;15,86
1270,98;15,97
1269,05;16,13
1267,12;16,31
1265,19;16,48
1263,26;16,64
1261,33;16,77
1259,40;16,92
1257,47;17,03
1255,54;17,07
1253,61;17,03
1251,68;16,92
1249,75;16,76
1247,82;16,59
1245,89;16,44
1243,96;16,33
1242,03;16,23
1240,10;16,08
1238,17;15,81
1236,24;15,42
1234,31;15,04
1232,38;14,84
1230,45;14,89
1228,52;15,13
1226,59;15,49
1224,66;15,88
1222,73;16,26
1220,80;16,60
1218,87;16,89
1216,94;17,13
1215,01;17,32
1213,08;17,45
1211,15;17,53
1209,22;17,56
1207,29;17,53
1205,36;17,46
1203,43;17,37
1201,50;17,30
1199,57;17,25
1197,64;17,20
1195,71;17,15
1193,78;17,09
1191,85;17,05
1189,92;17,03
1187,99;17,03
1186,06;16,97
1184,13;16,77
1182,20;16,42
1180,27;16,02
1178,34;15,68
1176,41;15,34
1174,48;14,91
1172,55;14,40
1170,62;13,98
1168,69;13,79
1166,76;13,83
1164,83;13,90
1162,90;13,91
1160,97;13,83
1159,04;13,71
1157,11;13,60
1155,18;13,57
1153,25;13,64
1151,32;13,83
1149,39;14,12
1147,46;14,47
1145,53;14,87
1143,60;15,32
1141,67;15,79
1139,74;16,29
1137,81;16,76
1135,88;17,20
1133,95;17,58
1132,02;17,90
1130,09;18,13
1128,16;18,25
1126,23;18,28
1124,30;18,25
1122,37;18,19
1120,44;18,16
1118,51;18,17
1116,58;18,20
1114,65;18,24
1112,72;18,28
1110,79;18,34
1108,86;18,41
1106,93;18,45
1105,00;18,40
1103,07;18,25
1101,14;18,02
1099,21;17,68
1097,28;17,22
1095,35;16,63
1093,42;15,94
1091,49;15,25
1089,56;14,65
1087,63;14,26
1085,70;14,18
1083,77;14,34
1081,84;14,62
1079,91;14,99
1077,98;15,52
1076,05;16,11
1074,12;16,67
1072,19;17,17
1070,26;17,64
1068,33;18,06
1066,40;18,41
1064,47;18,70
1062,54;18,97
1060,61;19,22
1058,68;19,42
1056,75;19,50
1054,82;19,43
1052,89;19,22
1050,96;18,97
1049,03;18,73
1047,10;18,54
1045,17;18,42
1043,24;18,39
1041,31;18,43
1039,38;18,54
1037,45;18,73
1035,52;19,01
1033,59;19,37
1031,66;19,78
1029,73;20,22
1027,80;20,69
1025,87;21,14
1023,94;21,55
1022,01;21,92
1020,08;22,25
1018,15;22,55
1016,22;22,77
1014,29;22,91
1012,36;22,96
1010,43;23,00
1008,50;23,11
1006,57;23,29
1004,64;23,46
1002,71;23,56
1000,78;23,60
998,85;23,65
996,92;23,71
994,99;23,81
993,06;23,91
991,13;24,00
989,20;24,04
987,27;24,03
985,34;23,95
983,41;23,83
981,48;23,66
979,55;23,47
977,62;23,25
975,69;23,02
973,76;22,81
971,83;22,64
969,90;22,53
967,97;22,50
966,04;22,58
964,11;22,81
962,18;23,15
960,25;23,50
958,32;23,79
956,39;23,96
954,46;24,09
952,53;24,25
950,60;24,47
948,67;24,70
946,74;24,90
944,81;25,06
942,88;25,20
940,95;25,31
939,02;25,38
937,09;25,44
935,16;25,52
933,23;25,64
931,30;25,78
929,37;25,92
927,44;26,02
925,51;26,05
923,58;25,99
921,65;25,84
919,72;25,71
917,79;25,79
915,86;26,11
913,93;26,47
912,00;26,69
910,07;26,75
908,14;26,73
906,21;26,66
904,28;26,50
902,35;26,20
900,42;25,71
898,49;25,05
896,56;24,28
894,63;23,47
892,70;22,72
890,77;22,13
888,84;21,80
886,91;21,76
884,98;21,90
883,05;22,09
881,12;22,30
879,19;22,52
877,26;22,73
875,33;22,88
873,40;22,92
871,47;22,88
869,54;22,76
867,61;22,58
865,68;22,41
863,75;22,29
861,82;22,23
859,89;22,23
857,96;22,25
856,03;22,25
854,10;22,21
852,17;22,15
850,24;22,05
848,31;21,95
846,38;21,91
844,45;21,90
842,52;21,93
840,59;21,97
838,66;21,96
836,73;21,82
834,80;21,60
832,87;21,39
830,94;21,21
829,01;21,04
827,08;20,82
825,15;20,54
823,22;20,21
821,29;19,86
819,36;19,53
817,43;19,24
815,50;19,05
813,57;18,98
811,64;18,97
809,71;18,95
807,78;18,86
805,85;18,76
803,92;18,85
801,99;19,09
800,06;19,29
798,13;19,31
796,20;19,18
794,27;18,99
792,34;18,80
790,41;18,57
788,48;18,23
786,55;17,78
784,62;17,22
782,69;16,63
780,76;16,13
778,83;15,72
776,90;15,33
774,97;14,92
773,04;14,50
771,11;14,12
769,18;13,80
767,25;13,61
765,32;13,62
763,39;13,72
761,46;13,75
759,53;13,64
757,60;13,42
755,67;13,11
753,74;12,76
751,81;12,40
749,88;12,10
747,95;11,81
746,02;11,46
744,09;10,99
742,16;10,43
740,23;9,96
738,30;9,65
736,37;9,38
734,44;9,04
732,51;8,51
730,58;7,75
728,65;6,82
726,72;5,91
724,79;5,13
722,86;4,62
720,93;4,76
719,00;5,79
717,07;7,39
715,14;9,05
713,21;10,52
711,28;11,78
709,35;12,87
707,42;13,78
705,49;14,48
703,56;14,94
701,63;15,19
699,70;15,33
697,77;15,60
695,84;16,09
693,91;16,62
691,98;17,06
690,05;17,42
688,12;17,70
686,19;17,93
684,26;18,10
682,33;18,20
680,40;18,22
678,47;18,21
676,54;18,17
674,61;18,14
672,68;18,13
670,75;18,11
668,82;18,07
666,89;18,18
664,96;18,22
663,03;18,21
661,10;18,21
659,17;18,24
657,24;18,31
655,31;18,41
653,38;18,52
651,45;18,64
649,52;18,75
647,59;18,87
645,66;18,99
643,73;19,11
641,80;19,21
639,87;19,30
637,94;19,37
636,01;19,44
634,08;19,51
632,15;19,58
630,22;19,62
628,29;19,64
626,36;19,69
624,43;19,77
622,50;19,85
620,57;19,91
618,64;19,93
616,71;19,96
614,78;19,99
612,85;20,03
610,92;20,07
608,99;20,09
607,06;20,09
605,13;20,08
603,20;20,10
601,27;20,17
599,34;20,29
597,41;20,44
595,48;20,59
593,55;20,73
591,62;20,86
589,69;20,97
587,76;21,06
585,83;21,17
583,90;21,27
581,97;21,36
580,04;21,45
578,11;21,54
576,18;21,64
574,25;21,72
572,32;21,78
570,39;21,83
568,46;21,89
566,53;21,97
564,60;22,07
562,67;22,20
560,74;22,34
558,81;22,49
556,88;22,62
554,95;22,73
553,02;22,84
551,09;22,96
549,16;23,11
547,23;23,27
545,30;23,45
543,37;23,60
541,44;23,71
539,51;23,80
537,58;23,92
535,65;24,08
533,72;24,25
531,79;24,41
529,86;24,55
527,93;24,70
526,00;24,87
524,07;25,00
522,14;25,16
520,21;25,38
518,28;25,63
516,35;25,85
514,42;26,06
512,49;26,28
510,56;26,53
508,63;26,78
506,70;27,02
504,77;27,24
502,84;27,46
500,91;27,63
