Created as New Dataset;Amostra 401 por Laboratório data terça-feira, setembro 24 2024
cm-1;%T
4000,00;0,95
3998,07;0,95
3996,14;0,95
3994,21;0,95
3992,28;0,95
3990,35;0,95
3988,42;0,95
3986,49;0,95
3984,56;0,96
3982,63;0,96
3980,70;0,96
3978,77;0,96
3976,84;0,96
3974,91;0,96
3972,98;0,96
3971,05;0,96
3969,12;0,96
3967,19;0,96
3965,26;0,96
3963,33;0,96
3961,40;0,96
3959,47;0,96
3957,54;0,96
3955,61;0,96
3953,68;0,96
3951,75;0,95
3949,82;0,95
3947,89;0,95
3945,96;0,95
3944,03;0,95
3942,10;0,95
3940,17;0,95
3938,24;0,95
3936,31;0,94
3934,38;0,94
3932,45;0,94
3930,52;0,94
3928,59;0,94
3926,66;0,93
3924,73;0,93
3922,80;0,93
3920,87;0,93
3918,94;0,93
3917,01;0,93
3915,08;0,92
3913,15;0,92
3911,22;0,92
3909,29;0,92
3907,36;0,92
3905,43;0,91
3903,50;0,91
3901,57;0,91
3899,64;0,90
3897,71;0,90
3895,78;0,90
3893,85;0,90
3891,92;0,90
3889,99;0,90
3888,06;0,89
3886,13;0,89
3884,20;0,89
3882,27;0,89
3880,34;0,89
3878,41;0,88
3876,48;0,88
3874,55;0,88
3872,62;0,88
3870,69;0,87
3868,76;0,87
3866,83;0,87
3864,90;0,86
3862,97;0,86
3861,04;0,86
3859,11;0,86
3857,18;0,85
3855,25;0,85
3853,32;0,84
3851,39;0,84
3849,46;0,84
3847,53;0,83
3845,60;0,83
3843,67;0,83
3841,74;0,83
3839,81;0,82
3837,88;0,82
3835,95;0,81
3834,02;0,81
3832,09;0,81
3830,16;0,80
3828,23;0,80
3826,30;0,80
3824,37;0,79
3822,44;0,79
3820,51;0,78
3818,58;0,78
3816,65;0,77
3814,72;0,77
3812,79;0,77
3810,86;0,76
3808,93;0,76
3807,00;0,75
3805,07;0,75
3803,14;0,74
3801,21;0,74
3799,28;0,73
3797,35;0,73
3795,42;0,72
3793,49;0,72
3791,56;0,71
3789,63;0,71
3787,70;0,70
3785,77;0,70
3783,84;0,69
3781,91;0,69
3779,98;0,68
3778,05;0,67
3776,12;0,67
3774,19;0,66
3772,26;0,66
3770,33;0,65
3768,40;0,64
3766,47;0,64
3764,54;0,63
3762,61;0,62
3760,68;0,62
3758,75;0,61
3756,82;0,60
3754,89;0,60
3752,96;0,59
3751,03;0,58
3749,10;0,57
3747,17;0,56
3745,24;0,55
3743,31;0,54
3741,38;0,53
3739,45;0,52
3737,52;0,52
3735,59;0,51
3733,66;0,50
3731,73;0,49
3729,80;0,48
3727,87;0,47
3725,94;0,46
3724,01;0,45
3722,08;0,44
3720,15;0,43
3718,22;0,41
3716,29;0,40
3714,36;0,39
3712,43;0,38
3710,50;0,36
3708,57;0,35
3706,64;0,33
3704,71;0,32
3702,78;0,31
3700,85;0,29
3698,92;0,28
3696,99;0,26
3695,06;0,25
3693,13;0,23
3691,20;0,22
3689,27;0,20
3687,34;0,19
3685,41;0,18
3683,48;0,16
3681,55;0,15
3679,62;0,14
3677,69;0,13
3675,76;0,12
3673,83;0,10
3671,90;0,09
3669,97;0,09
3668,04;0,08
3666,11;0,07
3664,18;0,06
3662,25;0,06
3660,32;0,05
3658,39;0,05
3656,46;0,05
3654,53;0,05
3652,60;0,04
3650,67;0,04
3648,74;0,03
3646,81;0,03
3644,88;0,03
3642,95;0,03
3641,02;0,03
3639,09;0,03
3637,16;0,03
3635,23;0,03
3633,30;0,02
3631,37;0,02
3629,44;0,03
3627,51;0,02
3625,58;0,02
3623,65;0,02
3621,72;0,02
3619,79;0,02
3617,86;0,02
3615,93;0,02
3614,00;0,02
3612,07;0,02
3610,14;0,02
3608,21;0,02
3606,28;0,02
3604,35;0,02
3602,42;0,02
3600,49;0,02
3598,56;0,02
3596,63;0,02
3594,70;0,02
3592,77;0,02
3590,84;0,01
3588,91;0,01
3586,98;0,01
3585,05;0,01
3583,12;0,01
3581,19;0,01
3579,26;0,01
3577,33;0,01
3575,40;0,01
3573,47;0,01
3571,54;0,01
3569,61;0,01
3567,68;0,01
3565,75;0,01
3563,82;0,01
3561,89;0,01
3559,96;0,01
3558,03;0,01
3556,10;0,02
3554,17;0,01
3552,24;0,01
3550,31;0,01
3548,38;0,01
3546,45;0,01
3544,52;0,01
3542,59;0,01
3540,66;0,01
3538,73;0,01
3536,80;0,01
3534,87;0,01
3532,94;0,01
3531,01;0,01
3529,08;0,01
3527,15;0,01
3525,22;0,01
3523,29;0,01
3521,36;0,01
3519,43;0,01
3517,50;0,01
3515,57;0,01
3513,64;0,01
3511,71;0,01
3509,78;0,00
3507,85;0,00
3505,92;0,00
3503,99;0,00
3502,06;0,00
3500,13;0,00
3498,20;0,00
3496,27;0,00
3494,34;0,00
3492,41;0,00
3490,48;0,00
3488,55;0,00
3486,62;0,00
3484,69;0,00
3482,76;0,00
3480,83;0,00
3478,90;0,00
3476,97;0,00
3475,04;0,00
3473,11;0,00
3471,18;0,00
3469,25;0,00
3467,32;0,00
3465,39;0,00
3463,46;0,00
3461,53;0,00
3459,60;0,00
3457,67;0,01
3455,74;0,01
3453,81;0,00
3451,88;0,00
3449,95;0,00
3448,02;0,00
3446,09;0,00
3444,16;0,00
3442,23;0,00
3440,30;0,00
3438,37;0,00
3436,44;0,00
3434,51;0,00
3432,58;0,00
3430,65;0,00
3428,72;0,00
3426,79;0,00
3424,86;0,00
3422,93;0,01
3421,00;0,00
3419,07;0,00
3417,14;0,00
3415,21;0,00
3413,28;0,00
3411,35;0,00
3409,42;0,00
3407,49;0,00
3405,56;0,00
3403,63;0,00
3401,70;0,00
3399,77;0,00
3397,84;0,00
3395,91;0,00
3393,98;0,00
3392,05;0,00
3390,12;0,00
3388,19;0,00
3386,26;0,00
3384,33;0,00
3382,40;0,00
3380,47;0,00
3378,54;0,00
3376,61;0,00
3374,68;0,00
3372,75;0,00
3370,82;0,00
3368,89;0,00
3366,96;0,00
3365,03;0,00
3363,10;0,00
3361,17;0,00
3359,24;0,00
3357,31;0,00
3355,38;0,00
3353,45;0,00
3351,52;0,00
3349,59;0,00
3347,66;0,00
3345,73;0,00
3343,80;0,00
3341,87;0,00
3339,94;0,00
3338,01;0,00
3336,08;0,00
3334,15;0,00
3332,22;0,00
3330,29;0,00
3328,36;0,00
3326,43;0,00
3324,50;0,00
3322,57;0,00
3320,64;0,00
3318,71;0,00
3316,78;0,00
3314,85;0,00
3312,92;0,00
3310,99;0,00
3309,06;0,00
3307,13;0,00
3305,20;0,00
3303,27;0,00
3301,34;0,00
3299,41;0,00
3297,48;0,00
3295,55;0,00
3293,62;0,00
3291,69;0,00
3289,76;0,00
3287,83;0,00
3285,90;0,00
3283,97;0,00
3282,04;0,00
3280,11;0,00
3278,18;0,00
3276,25;0,00
3274,32;0,00
3272,39;0,00
3270,46;0,00
3268,53;0,00
3266,60;0,00
3264,67;0,00
3262,74;0,00
3260,81;0,00
3258,88;0,00
3256,95;0,00
3255,02;0,00
3253,09;0,00
3251,16;0,00
3249,23;0,00
3247,30;0,00
3245,37;0,00
3243,44;0,00
3241,51;0,00
3239,58;0,00
3237,65;0,00
3235,72;0,00
3233,79;0,00
3231,86;0,00
3229,93;0,00
3228,00;0,00
3226,07;0,00
3224,14;0,00
3222,21;0,00
3220,28;0,00
3218,35;0,00
3216,42;0,00
3214,49;0,00
3212,56;0,00
3210,63;0,00
3208,70;0,00
3206,77;0,00
3204,84;0,00
3202,91;0,00
3200,98;0,00
3199,05;0,00
3197,12;0,00
3195,19;0,00
3193,26;0,00
3191,33;0,00
3189,40;0,00
3187,47;0,00
3185,54;0,00
3183,61;0,00
3181,68;0,00
3179,75;0,00
3177,82;0,00
3175,89;0,01
3173,96;0,00
3172,03;0,00
3170,10;0,00
3168,17;0,01
3166,24;0,01
3164,31;0,01
3162,38;0,01
3160,45;0,01
3158,52;0,01
3156,59;0,01
3154,66;0,01
3152,73;0,01
3150,80;0,01
3148,87;0,01
3146,94;0,01
3145,01;0,01
3143,08;0,01
3141,15;0,01
3139,22;0,02
3137,29;0,02
3135,36;0,02
3133,43;0,02
3131,50;0,02
3129,57;0,02
3127,64;0,03
3125,71;0,03
3123,78;0,03
3121,85;0,03
3119,92;0,03
3117,99;0,04
3116,06;0,04
3114,13;0,04
3112,20;0,05
3110,27;0,05
3108,34;0,06
3106,41;0,06
3104,48;0,07
3102,55;0,07
3100,62;0,08
3098,69;0,08
3096,76;0,09
3094,83;0,10
3092,90;0,10
3090,97;0,11
3089,04;0,12
3087,11;0,12
3085,18;0,13
3083,25;0,14
3081,32;0,15
3079,39;0,15
3077,46;0,16
3075,53;0,17
3073,60;0,18
3071,67;0,19
3069,74;0,20
3067,81;0,21
3065,88;0,22
3063,95;0,23
3062,02;0,24
3060,09;0,25
3058,16;0,27
3056,23;0,28
3054,30;0,29
3052,37;0,30
3050,44;0,31
3048,51;0,32
3046,58;0,34
3044,65;0,35
3042,72;0,36
3040,79;0,37
3038,86;0,38
3036,93;0,39
3035,00;0,39
3033,07;0,40
3031,14;0,40
3029,21;0,41
3027,28;0,41
3025,35;0,41
3023,42;0,41
3021,49;0,40
3019,56;0,40
3017,63;0,39
3015,70;0,38
3013,77;0,36
3011,84;0,35
3009,91;0,33
3007,98;0,31
3006,05;0,28
3004,12;0,26
3002,19;0,23
3000,26;0,20
2998,33;0,17
2996,40;0,14
2994,47;0,12
2992,54;0,09
2990,61;0,07
2988,68;0,05
2986,75;0,04
2984,82;0,03
2982,89;0,02
2980,96;0,01
2979,03;0,01
2977,10;0,00
2975,17;0,00
2973,24;0,00
2971,31;0,00
2969,38;0,00
2967,45;0,00
2965,52;0,00
2963,59;0,00
2961,66;0,00
2959,73;0,00
2957,80;0,00
2955,87;0,00
2953,94;0,00
2952,01;0,00
2950,08;0,00
2948,15;0,00
2946,22;0,00
2944,29;0,00
2942,36;0,00
2940,43;0,00
2938,50;0,00
2936,57;0,00
2934,64;0,00
2932,71;0,00
2930,78;0,00
2928,85;0,00
2926,92;0,00
2924,99;0,00
2923,06;0,00
2921,13;0,00
2919,20;0,00
2917,27;0,00
2915,34;0,00
2913,41;0,00
2911,48;0,00
2909,55;0,00
2907,62;0,00
2905,69;0,00
2903,76;0,00
2901,83;0,00
2899,90;0,00
2897,97;0,00
2896,04;0,00
2894,11;0,00
2892,18;0,00
2890,25;0,00
2888,32;0,00
2886,39;0,00
2884,46;0,00
2882,53;0,00
2880,60;0,00
2878,67;0,00
2876,74;0,00
2874,81;0,00
2872,88;0,00
2870,95;0,00
2869,02;0,00
2867,09;0,00
2865,16;0,00
2863,23;0,00
2861,30;0,00
2859,37;0,00
2857,44;0,00
2855,51;0,00
2853,58;0,00
2851,65;0,00
2849,72;0,00
2847,79;0,00
2845,86;0,00
2843,93;0,00
2842,00;0,00
2840,07;0,00
2838,14;0,00
2836,21;0,00
2834,28;0,01
2832,35;0,02
2830,42;0,04
2828,49;0,08
2826,56;0,12
2824,63;0,17
2822,70;0,23
2820,77;0,30
2818,84;0,37
2816,91;0,45
2814,98;0,55
2813,05;0,64
2811,12;0,75
2809,19;0,86
2807,26;0,98
2805,33;1,10
2803,40;1,23
2801,47;1,36
2799,54;1,49
2797,61;1,63
2795,68;1,76
2793,75;1,90
2791,82;2,05
2789,89;2,19
2787,96;2,34
2786,03;2,50
2784,10;2,65
2782,17;2,81
2780,24;2,97
2778,31;3,12
2776,38;3,27
2774,45;3,41
2772,52;3,54
2770,59;3,66
2768,66;3,78
2766,73;3,87
2764,80;3,96
2762,87;4,04
2760,94;4,10
2759,01;4,16
2757,08;4,21
2755,15;4,26
2753,22;4,30
2751,29;4,34
2749,36;4,36
2747,43;4,37
2745,50;4,37
2743,57;4,35
2741,64;4,32
2739,71;4,27
2737,78;4,21
2735,85;4,12
2733,92;4,03
2731,99;3,94
2730,06;3,88
2728,13;3,87
2726,20;3,90
2724,27;3,95
2722,34;4,01
2720,41;4,08
2718,48;4,17
2716,55;4,27
2714,62;4,39
2712,69;4,51
2710,76;4,62
2708,83;4,73
2706,90;4,81
2704,97;4,87
2703,04;4,92
2701,11;4,95
2699,18;4,97
2697,25;4,97
2695,32;4,96
2693,39;4,94
2691,46;4,92
2689,53;4,90
2687,60;4,88
2685,67;4,87
2683,74;4,86
2681,81;4,86
2679,88;4,87
2677,95;4,87
2676,02;4,88
2674,09;4,89
2672,16;4,90
2670,23;4,91
2668,30;4,95
2666,37;5,00
2664,44;5,06
2662,51;5,12
2660,58;5,19
2658,65;5,26
2656,72;5,33
2654,79;5,39
2652,86;5,45
2650,93;5,51
2649,00;5,56
2647,07;5,60
2645,14;5,65
2643,21;5,69
2641,28;5,72
2639,35;5,76
2637,42;5,80
2635,49;5,83
2633,56;5,86
2631,63;5,89
2629,70;5,92
2627,77;5,95
2625,84;5,98
2623,91;6,00
2621,98;6,03
2620,05;6,06
2618,12;6,09
2616,19;6,12
2614,26;6,15
2612,33;6,18
2610,40;6,21
2608,47;6,25
2606,54;6,28
2604,61;6,32
2602,68;6,36
2600,75;6,41
2598,82;6,45
2596,89;6,50
2594,96;6,56
2593,03;6,61
2591,10;6,67
2589,17;6,73
2587,24;6,79
2585,31;6,86
2583,38;6,92
2581,45;6,99
2579,52;7,05
2577,59;7,12
2575,66;7,19
2573,73;7,26
2571,80;7,33
2569,87;7,39
2567,94;7,46
2566,01;7,52
2564,08;7,57
2562,15;7,62
2560,22;7,67
2558,29;7,72
2556,36;7,76
2554,43;7,80
2552,50;7,83
2550,57;7,87
2548,64;7,90
2546,71;7,93
2544,78;7,95
2542,85;7,98
2540,92;8,00
2538,99;8,02
2537,06;8,04
2535,13;8,06
2533,20;8,08
2531,27;8,10
2529,34;8,13
2527,41;8,16
2525,48;8,19
2523,55;8,22
2521,62;8,25
2519,69;8,28
2517,76;8,31
2515,83;8,34
2513,90;8,36
2511,97;8,39
2510,04;8,41
2508,11;8,43
2506,18;8,45
2504,25;8,47
2502,32;8,49
2500,39;8,50
2498,46;8,52
2496,53;8,53
2494,60;8,55
2492,67;8,56
2490,74;8,56
2488,81;8,57
2486,88;8,58
2484,95;8,58
2483,02;8,59
2481,09;8,59
2479,16;8,59
2477,23;8,59
2475,30;8,59
2473,37;8,59
2471,44;8,59
2469,51;8,59
2467,58;8,59
2465,65;8,58
2463,72;8,58
2461,79;8,57
2459,86;8,57
2457,93;8,56
2456,00;8,55
2454,07;8,54
2452,14;8,53
2450,21;8,52
2448,28;8,51
2446,35;8,50
2444,42;8,49
2442,49;8,47
2440,56;8,46
2438,63;8,44
2436,70;8,43
2434,77;8,41
2432,84;8,39
2430,91;8,37
2428,98;8,36
2427,05;8,34
2425,12;8,32
2423,19;8,30
2421,26;8,28
2419,33;8,26
2417,40;8,24
2415,47;8,22
2413,54;8,21
2411,61;8,19
2409,68;8,17
2407,75;8,15
2405,82;8,14
2403,89;8,12
2401,96;8,11
2400,03;8,10
2398,10;8,09
2396,17;8,08
2394,24;8,07
2392,31;8,06
2390,38;8,05
2388,45;8,03
2386,52;8,01
2384,59;7,97
2382,66;7,92
2380,73;7,86
2378,80;7,78
2376,87;7,93
2374,94;7,88
2373,01;7,84
2371,08;7,81
2369,15;7,77
2367,22;7,74
2365,29;7,71
2363,36;7,68
2361,43;7,65
2359,50;7,63
2357,57;7,61
2355,64;7,59
2353,71;7,58
2351,78;7,45
2349,85;7,30
2347,92;7,25
2345,99;7,30
2344,06;7,24
2342,13;7,14
2340,20;7,05
2338,27;6,89
2336,34;6,72
2334,41;6,69
2332,48;6,82
2330,55;6,98
2328,62;7,07
2326,69;7,11
2324,76;7,12
2322,83;7,12
2320,90;7,14
2318,97;7,17
2317,04;7,19
2315,11;7,22
2313,18;7,23
2311,25;7,25
2309,32;7,27
2307,39;7,29
2305,46;7,31
2303,53;7,33
2301,60;7,34
2299,67;7,35
2297,74;7,36
2295,81;7,37
2293,88;7,37
2291,95;7,37
2290,02;7,37
2288,09;7,37
2286,16;7,36
2284,23;7,36
2282,30;7,35
2280,37;7,35
2278,44;7,34
2276,51;7,34
2274,58;7,33
2272,65;7,32
2270,72;7,31
2268,79;7,30
2266,86;7,29
2264,93;7,28
2263,00;7,28
2261,07;7,27
2259,14;7,26
2257,21;7,25
2255,28;7,24
2253,35;7,23
2251,42;7,22
2249,49;7,20
2247,56;7,19
2245,63;7,18
2243,70;7,17
2241,77;7,16
2239,84;7,14
2237,91;7,13
2235,98;7,11
2234,05;7,10
2232,12;7,08
2230,19;7,07
2228,26;7,05
2226,33;7,03
2224,40;7,02
2222,47;7,00
2220,54;6,99
2218,61;6,97
2216,68;6,95
2214,75;6,94
2212,82;6,92
2210,89;6,90
2208,96;6,89
2207,03;6,87
2205,10;6,85
2203,17;6,84
2201,24;6,82
2199,31;6,81
2197,38;6,79
2195,45;6,78
2193,52;6,76
2191,59;6,75
2189,66;6,73
2187,73;6,72
2185,80;6,70
2183,87;6,69
2181,94;6,68
2180,01;6,67
2178,08;6,66
2176,15;6,66
2174,22;6,66
2172,29;6,65
2170,36;6,64
2168,43;6,64
2166,50;6,64
2164,57;6,63
2162,64;6,63
2160,71;6,63
2158,78;6,63
2156,85;6,63
2154,92;6,63
2152,99;6,63
2151,06;6,64
2149,13;6,64
2147,20;6,66
2145,27;6,67
2143,34;6,69
2141,41;6,71
2139,48;6,72
2137,55;6,74
2135,62;6,76
2133,69;6,77
2131,76;6,78
2129,83;6,80
2127,90;6,81
2125,97;6,83
2124,04;6,84
2122,11;6,86
2120,18;6,87
2118,25;6,89
2116,32;6,91
2114,39;6,93
2112,46;6,94
2110,53;6,96
2108,60;6,98
2106,67;7,00
2104,74;7,03
2102,81;7,05
2100,88;7,07
2098,95;7,09
2097,02;7,12
2095,09;7,14
2093,16;7,17
2091,23;7,19
2089,30;7,22
2087,37;7,25
2085,44;7,27
2083,51;7,30
2081,58;7,33
2079,65;7,36
2077,72;7,39
2075,79;7,42
2073,86;7,45
2071,93;7,47
2070,00;7,50
2068,07;7,53
2066,14;7,57
2064,21;7,59
2062,28;7,62
2060,35;7,65
2058,42;7,68
2056,49;7,71
2054,56;7,74
2052,63;7,77
2050,70;7,80
2048,77;7,83
2046,84;7,86
2044,91;7,89
2042,98;7,92
2041,05;7,96
2039,12;7,99
2037,19;8,02
2035,26;8,05
2033,33;8,09
2031,40;8,13
2029,47;8,17
2027,54;8,22
2025,61;8,27
2023,68;8,32
2021,75;8,38
2019,82;8,44
2017,89;8,51
2015,96;8,59
2014,03;8,66
2012,10;8,73
2010,17;8,80
2008,24;8,86
2006,31;8,92
2004,38;8,98
2002,45;9,03
2000,52;9,09
1998,59;9,14
1996,66;9,19
1994,73;9,24
1992,80;9,29
1990,87;9,33
1988,94;9,37
1987,01;9,41
1985,08;9,46
1983,15;9,50
1981,22;9,54
1979,29;9,58
1977,36;9,62
1975,43;9,65
1973,50;9,69
1971,57;9,73
1969,64;9,76
1967,71;9,80
1965,78;9,83
1963,85;9,86
1961,92;9,89
1959,99;9,92
1958,06;9,95
1956,13;9,97
1954,20;10,00
1952,27;10,02
1950,34;10,05
1948,41;10,07
1946,48;10,11
1944,55;10,14
1942,62;10,15
1940,69;10,14
1938,76;10,15
1936,83;10,17
1934,90;10,19
1932,97;10,22
1931,04;10,24
1929,11;10,27
1927,18;10,29
1925,25;10,31
1923,32;10,33
1921,39;10,35
1919,46;10,36
1917,53;10,36
1915,60;10,35
1913,67;10,36
1911,74;10,36
1909,81;10,38
1907,88;10,38
1905,95;10,39
1904,02;10,39
1902,09;10,40
1900,16;10,41
1898,23;10,41
1896,30;10,42
1894,37;10,43
1892,44;10,44
1890,51;10,44
1888,58;10,42
1886,65;10,41
1884,72;10,41
1882,79;10,41
1880,86;10,41
1878,93;10,41
1877,00;10,41
1875,07;10,41
1873,14;10,43
1871,21;10,44
1869,28;10,43
1867,35;10,41
1865,42;10,39
1863,49;10,38
1861,56;10,38
1859,63;10,36
1857,70;10,35
1855,77;10,33
1853,84;10,32
1851,91;10,30
1849,98;10,28
1848,05;10,25
1846,12;10,23
1844,19;10,23
1842,26;10,19
1840,33;10,16
1838,40;10,13
1836,47;10,11
1834,54;10,09
1832,61;10,08
1830,68;10,04
1828,75;10,00
1826,82;9,96
1824,89;9,88
1822,96;9,80
1821,03;9,75
1819,10;9,70
1817,17;9,64
1815,24;9,57
1813,31;9,51
1811,38;9,44
1809,45;9,36
1807,52;9,27
1805,59;9,20
1803,66;9,12
1801,73;9,02
1799,80;8,88
1797,87;8,74
1795,94;8,62
1794,01;8,55
1792,08;8,44
1790,15;8,29
1788,22;8,16
1786,29;8,04
1784,36;7,89
1782,43;7,74
1780,50;7,58
1778,57;7,39
1776,64;7,16
1774,71;6,98
1772,78;6,89
1770,85;6,72
1768,92;6,52
1766,99;6,29
1765,06;6,05
1763,13;5,74
1761,20;5,29
1759,27;4,74
1757,34;4,05
1755,41;3,24
1753,48;2,56
1751,55;2,03
1749,62;1,67
1747,69;1,51
1745,76;1,52
1743,83;1,64
1741,90;1,83
1739,97;2,02
1738,04;2,16
1736,11;2,25
1734,18;2,36
1732,25;2,44
1730,32;2,45
1728,39;2,43
1726,46;2,41
1724,53;2,36
1722,60;2,30
1720,67;2,18
1718,74;2,07
1716,81;1,97
1714,88;1,83
1712,95;1,69
1711,02;1,55
1709,09;1,43
1707,16;1,32
1705,23;1,21
1703,30;1,12
1701,37;1,05
1699,44;0,95
1697,51;0,89
1695,58;0,85
1693,65;0,80
1691,72;0,75
1689,79;0,69
1687,86;0,62
1685,93;0,58
1684,00;0,54
1682,07;0,49
1680,14;0,44
1678,21;0,41
1676,28;0,37
1674,35;0,33
1672,42;0,30
1670,49;0,27
1668,56;0,25
1666,63;0,22
1664,70;0,21
1662,77;0,19
1660,84;0,18
1658,91;0,16
1656,98;0,15
1655,05;0,14
1653,12;0,13
1651,19;0,13
1649,26;0,13
1647,33;0,12
1645,40;0,12
1643,47;0,12
1641,54;0,13
1639,61;0,13
1637,68;0,13
1635,75;0,14
1633,82;0,14
1631,89;0,15
1629,96;0,17
1628,03;0,19
1626,10;0,22
1624,17;0,26
1622,24;0,30
1620,31;0,33
1618,38;0,37
1616,45;0,44
1614,52;0,50
1612,59;0,56
1610,66;0,62
1608,73;0,69
1606,80;0,77
1604,87;0,85
1602,94;0,95
1601,01;1,05
1599,08;1,16
1597,15;1,28
1595,22;1,40
1593,29;1,52
1591,36;1,64
1589,43;1,76
1587,50;1,88
1585,57;2,00
1583,64;2,12
1581,71;2,23
1579,78;2,34
1577,85;2,45
1575,92;2,57
1573,99;2,68
1572,06;2,77
1570,13;2,88
1568,20;2,97
1566,27;3,06
1564,34;3,10
1562,41;3,12
1560,48;3,22
1558,55;3,38
1556,62;3,47
1554,69;3,57
1552,76;3,68
1550,83;3,76
1548,90;3,84
1546,97;3,92
1545,04;4,01
1543,11;4,09
1541,18;4,17
1539,25;4,23
1537,32;4,27
1535,39;4,32
1533,46;4,38
1531,53;4,38
1529,60;4,38
1527,67;4,36
1525,74;4,30
1523,81;4,19
1521,88;4,15
1519,95;4,10
1518,02;3,99
1516,09;3,86
1514,16;3,79
1512,23;3,79
1510,30;3,73
1508,37;3,67
1506,44;3,66
1504,51;3,65
1502,58;3,62
1500,65;3,53
1498,72;3,37
1496,79;3,21
1494,86;3,05
1492,93;2,88
1491,00;2,63
1489,07;2,34
1487,14;2,06
1485,21;1,80
1483,28;1,55
1481,35;1,27
1479,42;0,98
1477,49;0,69
1475,56;0,43
1473,63;0,22
1471,70;0,08
1469,77;0,02
1467,84;0,00
1465,91;0,00
1463,98;0,00
1462,05;0,00
1460,12;0,00
1458,19;0,00
1456,26;0,00
1454,33;0,00
1452,40;0,00
1450,47;0,01
1448,54;0,01
1446,61;0,02
1444,68;0,03
1442,75;0,06
1440,82;0,09
1438,89;0,14
1436,96;0,22
1435,03;0,34
1433,10;0,50
1431,17;0,74
1429,24;1,01
1427,31;1,27
1425,38;1,48
1423,45;1,65
1421,52;1,78
1419,59;1,90
1417,66;2,01
1415,73;2,09
1413,80;2,16
1411,87;2,22
1409,94;2,26
1408,01;2,29
1406,08;2,31
1404,15;2,31
1402,22;2,30
1400,29;2,27
1398,36;2,19
1396,43;2,06
1394,50;1,85
1392,57;1,60
1390,64;1,35
1388,71;1,08
1386,78;0,77
1384,85;0,49
1382,92;0,28
1380,99;0,13
1379,06;0,05
1377,13;0,03
1375,20;0,05
1373,27;0,12
1371,34;0,20
1369,41;0,23
1367,48;0,23
1365,55;0,25
1363,62;0,39
1361,69;0,62
1359,76;0,83
1357,83;0,97
1355,90;1,06
1353,97;1,11
1352,04;1,16
1350,11;1,25
1348,18;1,35
1346,25;1,44
1344,32;1,51
1342,39;1,56
1340,46;1,62
1338,53;1,73
1336,60;1,87
1334,67;2,01
1332,74;2,15
1330,81;2,27
1328,88;2,37
1326,95;2,45
1325,02;2,51
1323,09;2,54
1321,16;2,53
1319,23;2,51
1317,30;2,47
1315,37;2,43
1313,44;2,40
1311,51;2,37
1309,58;2,35
1307,65;2,34
1305,72;2,33
1303,79;2,33
1301,86;2,35
1299,93;2,40
1298,00;2,46
1296,07;2,54
1294,14;2,62
1292,21;2,69
1290,28;2,76
1288,35;2,82
1286,42;2,87
1284,49;2,90
1282,56;2,92
1280,63;2,91
1278,70;2,89
1276,77;2,87
1274,84;2,86
1272,91;2,87
1270,98;2,89
1269,05;2,91
1267,12;2,94
1265,19;2,96
1263,26;2,98
1261,33;2,99
1259,40;3,01
1257,47;3,02
1255,54;3,03
1253,61;3,03
1251,68;3,01
1249,75;2,99
1247,82;2,96
1245,89;2,93
1243,96;2,92
1242,03;2,90
1240,10;2,87
1238,17;2,82
1236,24;2,74
1234,31;2,66
1232,38;2,62
1230,45;2,63
1228,52;2,68
1226,59;2,76
1224,66;2,83
1222,73;2,91
1220,80;2,97
1218,87;3,02
1216,94;3,06
1215,01;3,09
1213,08;3,11
1211,15;3,11
1209,22;3,11
1207,29;3,09
1205,36;3,07
1203,43;3,04
1201,50;3,02
1199,57;3,02
1197,64;3,01
1195,71;3,00
1193,78;2,98
1191,85;2,96
1189,92;2,95
1187,99;2,93
1186,06;2,90
1184,13;2,84
1182,20;2,76
1180,27;2,66
1178,34;2,57
1176,41;2,47
1174,48;2,36
1172,55;2,24
1170,62;2,14
1168,69;2,07
1166,76;2,04
1164,83;2,01
1162,90;1,98
1160,97;1,93
1159,04;1,90
1157,11;1,87
1155,18;1,87
1153,25;1,90
1151,32;1,97
1149,39;2,06
1147,46;2,17
1145,53;2,30
1143,60;2,43
1141,67;2,55
1139,74;2,67
1137,81;2,77
1135,88;2,86
1133,95;2,93
1132,02;2,97
1130,09;3,00
1128,16;3,00
1126,23;2,98
1124,30;2,94
1122,37;2,90
1120,44;2,85
1118,51;2,82
1116,58;2,78
1114,65;2,74
1112,72;2,69
1110,79;2,66
1108,86;2,65
1106,93;2,66
1105,00;2,67
1103,07;2,66
1101,14;2,64
1099,21;2,60
1097,28;2,53
1095,35;2,44
1093,42;2,33
1091,49;2,22
1089,56;2,13
1087,63;2,09
1085,70;2,11
1083,77;2,18
1081,84;2,29
1079,91;2,41
1077,98;2,54
1076,05;2,67
1074,12;2,79
1072,19;2,90
1070,26;2,99
1068,33;3,07
1066,40;3,13
1064,47;3,19
1062,54;3,25
1060,61;3,31
1058,68;3,36
1056,75;3,38
1054,82;3,37
1052,89;3,33
1050,96;3,28
1049,03;3,23
1047,10;3,21
1045,17;3,20
1043,24;3,21
1041,31;3,23
1039,38;3,25
1037,45;3,28
1035,52;3,32
1033,59;3,38
1031,66;3,45
1029,73;3,54
1027,80;3,64
1025,87;3,73
1023,94;3,80
1022,01;3,88
1020,08;3,94
1018,15;4,00
1016,22;4,05
1014,29;4,08
1012,36;4,09
1010,43;4,10
1008,50;4,12
1006,57;4,15
1004,64;4,18
1002,71;4,18
1000,78;4,17
998,85;4,15
996,92;4,14
994,99;4,12
993,06;4,11
991,13;4,09
989,20;4,07
987,27;4,04
985,34;4,00
983,41;3,95
981,48;3,88
979,55;3,82
977,62;3,74
975,69;3,66
973,76;3,59
971,83;3,52
969,90;3,46
967,97;3,41
966,04;3,37
964,11;3,36
962,18;3,37
960,25;3,38
958,32;3,39
956,39;3,37
954,46;3,33
952,53;3,30
950,60;3,28
948,67;3,25
946,74;3,22
944,81;3,19
942,88;3,15
940,95;3,11
939,02;3,07
937,09;3,02
935,16;2,97
933,23;2,93
931,30;2,89
929,37;2,85
927,44;2,80
925,51;2,75
923,58;2,70
921,65;2,63
919,72;2,56
917,79;2,51
915,86;2,48
913,93;2,46
912,00;2,42
910,07;2,37
908,14;2,30
906,21;2,24
904,28;2,16
902,35;2,08
900,42;1,98
898,49;1,87
896,56;1,75
894,63;1,63
892,70;1,53
890,77;1,43
888,84;1,36
886,91;1,32
884,98;1,28
883,05;1,26
881,12;1,23
879,19;1,21
877,26;1,19
875,33;1,16
873,40;1,13
871,47;1,09
869,54;1,05
867,61;1,00
865,68;0,96
863,75;0,92
861,82;0,89
859,89;0,87
857,96;0,84
856,03;0,80
854,10;0,78
852,17;0,75
850,24;0,72
848,31;0,69
846,38;0,66
844,45;0,64
842,52;0,62
840,59;0,59
838,66;0,58
836,73;0,55
834,80;0,53
832,87;0,51
830,94;0,49
829,01;0,47
827,08;0,44
825,15;0,42
823,22;0,40
821,29;0,38
819,36;0,36
817,43;0,34
815,50;0,33
813,57;0,32
811,64;0,30
809,71;0,29
807,78;0,28
805,85;0,27
803,92;0,26
801,99;0,26
800,06;0,25
798,13;0,25
796,20;0,24
794,27;0,23
792,34;0,22
790,41;0,21
788,48;0,20
786,55;0,18
784,62;0,17
782,69;0,16
780,76;0,16
778,83;0,15
776,90;0,14
774,97;0,13
773,04;0,12
771,11;0,12
769,18;0,11
767,25;0,11
765,32;0,11
763,39;0,11
761,46;0,10
759,53;0,10
757,60;0,10
755,67;0,09
753,74;0,09
751,81;0,08
749,88;0,07
747,95;0,07
746,02;0,07
744,09;0,07
742,16;0,06
740,23;0,06
738,30;0,06
736,37;0,05
734,44;0,05
732,51;0,05
730,58;0,04
728,65;0,03
726,72;0,03
724,79;0,03
722,86;0,03
720,93;0,03
719,00;0,03
717,07;0,03
715,14;0,04
713,21;0,05
711,28;0,05
709,35;0,06
707,42;0,06
705,49;0,06
703,56;0,06
701,63;0,07
699,70;0,07
697,77;0,07
695,84;0,07
693,91;0,07
691,98;0,08
690,05;0,08
688,12;0,08
686,19;0,08
684,26;0,08
682,33;0,08
680,40;0,08
678,47;0,08
676,54;0,08
674,61;0,08
672,68;0,08
670,75;0,07
668,82;0,08
666,89;0,08
664,96;0,08
663,03;0,08
661,10;0,08
659,17;0,08
657,24;0,08
655,31;0,08
653,38;0,08
651,45;0,08
649,52;0,08
647,59;0,09
645,66;0,09
643,73;0,09
641,80;0,09
639,87;0,09
637,94;0,09
636,01;0,09
634,08;0,09
632,15;0,09
630,22;0,09
628,29;0,10
626,36;0,10
624,43;0,10
622,50;0,10
620,57;0,10
618,64;0,10
616,71;0,10
614,78;0,10
612,85;0,10
610,92;0,11
608,99;0,11
607,06;0,11
605,13;0,11
603,20;0,12
601,27;0,12
599,34;0,13
597,41;0,13
595,48;0,13
593,55;0,13
591,62;0,13
589,69;0,13
587,76;0,14
585,83;0,15
583,90;0,14
581,97;0,14
580,04;0,15
578,11;0,15
576,18;0,16
574,25;0,16
572,32;0,17
570,39;0,17
568,46;0,17
566,53;0,18
564,60;0,19
562,67;0,19
560,74;0,20
558,81;0,21
556,88;0,22
554,95;0,21
553,02;0,21
551,09;0,23
549,16;0,23
547,23;0,23
545,30;0,24
543,37;0,25
541,44;0,25
539,51;0,26
537,58;0,27
535,65;0,27
533,72;0,28
531,79;0,29
529,86;0,29
527,93;0,30
526,00;0,32
524,07;0,32
522,14;0,33
520,21;0,34
518,28;0,35
516,35;0,36
514,42;0,37
512,49;0,38
510,56;0,41
508,63;0,42
506,70;0,44
504,77;0,45
502,84;0,47
500,91;0,47
