Created as New Dataset;Amostra 408 por Laboratório data terça-feira, setembro 24 2024
cm-1;%T
4000,00;9,53
3998,07;9,54
3996,14;9,56
3994,21;9,58
3992,28;9,59
3990,35;9,61
3988,42;9,63
3986,49;9,66
3984,56;9,68
3982,63;9,70
3980,70;9,72
3978,77;9,74
3976,84;9,76
3974,91;9,77
3972,98;9,78
3971,05;9,79
3969,12;9,80
3967,19;9,81
3965,26;9,82
3963,33;9,83
3961,40;9,83
3959,47;9,83
3957,54;9,84
3955,61;9,84
3953,68;9,85
3951,75;9,85
3949,82;9,85
3947,89;9,85
3945,96;9,85
3944,03;9,85
3942,10;9,85
3940,17;9,85
3938,24;9,85
3936,31;9,85
3934,38;9,85
3932,45;9,84
3930,52;9,84
3928,59;9,84
3926,66;9,83
3924,73;9,83
3922,80;9,83
3920,87;9,82
3918,94;9,82
3917,01;9,82
3915,08;9,82
3913,15;9,82
3911,22;9,82
3909,29;9,81
3907,36;9,80
3905,43;9,79
3903,50;9,77
3901,57;9,76
3899,64;9,76
3897,71;9,77
3895,78;9,77
3893,85;9,77
3891,92;9,77
3889,99;9,77
3888,06;9,75
3886,13;9,75
3884,20;9,74
3882,27;9,73
3880,34;9,73
3878,41;9,73
3876,48;9,73
3874,55;9,72
3872,62;9,71
3870,69;9,70
3868,76;9,69
3866,83;9,68
3864,90;9,68
3862,97;9,68
3861,04;9,68
3859,11;9,67
3857,18;9,65
3855,25;9,63
3853,32;9,61
3851,39;9,60
3849,46;9,60
3847,53;9,61
3845,60;9,61
3843,67;9,60
3841,74;9,57
3839,81;9,55
3837,88;9,53
3835,95;9,52
3834,02;9,51
3832,09;9,51
3830,16;9,51
3828,23;9,50
3826,30;9,48
3824,37;9,46
3822,44;9,43
3820,51;9,42
3818,58;9,40
3816,65;9,39
3814,72;9,39
3812,79;9,39
3810,86;9,38
3808,93;9,37
3807,00;9,35
3805,07;9,33
3803,14;9,30
3801,21;9,29
3799,28;9,28
3797,35;9,27
3795,42;9,26
3793,49;9,25
3791,56;9,23
3789,63;9,22
3787,70;9,20
3785,77;9,17
3783,84;9,15
3781,91;9,12
3779,98;9,10
3778,05;9,08
3776,12;9,07
3774,19;9,05
3772,26;9,02
3770,33;8,99
3768,40;8,96
3766,47;8,93
3764,54;8,90
3762,61;8,88
3760,68;8,84
3758,75;8,81
3756,82;8,77
3754,89;8,73
3752,96;8,69
3751,03;8,64
3749,10;8,60
3747,17;8,55
3745,24;8,51
3743,31;8,47
3741,38;8,43
3739,45;8,39
3737,52;8,35
3735,59;8,29
3733,66;8,24
3731,73;8,20
3729,80;8,15
3727,87;8,10
3725,94;8,05
3724,01;7,99
3722,08;7,93
3720,15;7,86
3718,22;7,80
3716,29;7,73
3714,36;7,64
3712,43;7,55
3710,50;7,45
3708,57;7,35
3706,64;7,25
3704,71;7,16
3702,78;7,05
3700,85;6,93
3698,92;6,81
3696,99;6,68
3695,06;6,54
3693,13;6,40
3691,20;6,25
3689,27;6,08
3687,34;5,92
3685,41;5,78
3683,48;5,63
3681,55;5,47
3679,62;5,31
3677,69;5,14
3675,76;4,95
3673,83;4,76
3671,90;4,58
3669,97;4,41
3668,04;4,23
3666,11;4,07
3664,18;3,91
3662,25;3,75
3660,32;3,59
3658,39;3,44
3656,46;3,28
3654,53;3,14
3652,60;3,00
3650,67;2,87
3648,74;2,73
3646,81;2,60
3644,88;2,48
3642,95;2,38
3641,02;2,29
3639,09;2,20
3637,16;2,11
3635,23;2,02
3633,30;1,95
3631,37;1,87
3629,44;1,79
3627,51;1,71
3625,58;1,64
3623,65;1,58
3621,72;1,52
3619,79;1,46
3617,86;1,40
3615,93;1,35
3614,00;1,30
3612,07;1,25
3610,14;1,20
3608,21;1,15
3606,28;1,10
3604,35;1,06
3602,42;1,02
3600,49;0,98
3598,56;0,95
3596,63;0,92
3594,70;0,88
3592,77;0,85
3590,84;0,82
3588,91;0,79
3586,98;0,75
3585,05;0,71
3583,12;0,69
3581,19;0,66
3579,26;0,64
3577,33;0,61
3575,40;0,59
3573,47;0,56
3571,54;0,54
3569,61;0,52
3567,68;0,50
3565,75;0,48
3563,82;0,45
3561,89;0,43
3559,96;0,41
3558,03;0,40
3556,10;0,38
3554,17;0,37
3552,24;0,35
3550,31;0,34
3548,38;0,32
3546,45;0,30
3544,52;0,28
3542,59;0,28
3540,66;0,27
3538,73;0,26
3536,80;0,25
3534,87;0,24
3532,94;0,24
3531,01;0,23
3529,08;0,22
3527,15;0,21
3525,22;0,20
3523,29;0,19
3521,36;0,19
3519,43;0,18
3517,50;0,17
3515,57;0,16
3513,64;0,16
3511,71;0,15
3509,78;0,15
3507,85;0,14
3505,92;0,13
3503,99;0,12
3502,06;0,11
3500,13;0,11
3498,20;0,11
3496,27;0,11
3494,34;0,10
3492,41;0,10
3490,48;0,10
3488,55;0,09
3486,62;0,09
3484,69;0,09
3482,76;0,09
3480,83;0,08
3478,90;0,08
3476,97;0,08
3475,04;0,08
3473,11;0,08
3471,18;0,07
3469,25;0,06
3467,32;0,06
3465,39;0,07
3463,46;0,07
3461,53;0,07
3459,60;0,07
3457,67;0,07
3455,74;0,07
3453,81;0,07
3451,88;0,07
3449,95;0,07
3448,02;0,06
3446,09;0,06
3444,16;0,06
3442,23;0,06
3440,30;0,06
3438,37;0,05
3436,44;0,05
3434,51;0,05
3432,58;0,05
3430,65;0,05
3428,72;0,05
3426,79;0,05
3424,86;0,05
3422,93;0,05
3421,00;0,05
3419,07;0,05
3417,14;0,05
3415,21;0,05
3413,28;0,05
3411,35;0,05
3409,42;0,04
3407,49;0,04
3405,56;0,04
3403,63;0,04
3401,70;0,04
3399,77;0,04
3397,84;0,04
3395,91;0,04
3393,98;0,04
3392,05;0,03
3390,12;0,04
3388,19;0,05
3386,26;0,05
3384,33;0,04
3382,40;0,05
3380,47;0,05
3378,54;0,05
3376,61;0,04
3374,68;0,05
3372,75;0,05
3370,82;0,05
3368,89;0,04
3366,96;0,04
3365,03;0,05
3363,10;0,05
3361,17;0,05
3359,24;0,05
3357,31;0,05
3355,38;0,05
3353,45;0,05
3351,52;0,05
3349,59;0,05
3347,66;0,06
3345,73;0,06
3343,80;0,06
3341,87;0,06
3339,94;0,06
3338,01;0,06
3336,08;0,06
3334,15;0,07
3332,22;0,07
3330,29;0,07
3328,36;0,07
3326,43;0,07
3324,50;0,07
3322,57;0,07
3320,64;0,08
3318,71;0,08
3316,78;0,08
3314,85;0,08
3312,92;0,08
3310,99;0,09
3309,06;0,09
3307,13;0,09
3305,20;0,09
3303,27;0,10
3301,34;0,10
3299,41;0,10
3297,48;0,10
3295,55;0,10
3293,62;0,11
3291,69;0,11
3289,76;0,11
3287,83;0,12
3285,90;0,12
3283,97;0,12
3282,04;0,12
3280,11;0,13
3278,18;0,13
3276,25;0,13
3274,32;0,13
3272,39;0,14
3270,46;0,14
3268,53;0,15
3266,60;0,15
3264,67;0,15
3262,74;0,16
3260,81;0,16
3258,88;0,17
3256,95;0,17
3255,02;0,18
3253,09;0,18
3251,16;0,19
3249,23;0,19
3247,30;0,20
3245,37;0,20
3243,44;0,21
3241,51;0,22
3239,58;0,23
3237,65;0,24
3235,72;0,24
3233,79;0,25
3231,86;0,26
3229,93;0,27
3228,00;0,28
3226,07;0,29
3224,14;0,30
3222,21;0,31
3220,28;0,32
3218,35;0,33
3216,42;0,35
3214,49;0,36
3212,56;0,37
3210,63;0,39
3208,70;0,40
3206,77;0,42
3204,84;0,43
3202,91;0,45
3200,98;0,47
3199,05;0,49
3197,12;0,51
3195,19;0,53
3193,26;0,55
3191,33;0,57
3189,40;0,60
3187,47;0,62
3185,54;0,65
3183,61;0,68
3181,68;0,71
3179,75;0,74
3177,82;0,77
3175,89;0,80
3173,96;0,84
3172,03;0,87
3170,10;0,91
3168,17;0,95
3166,24;0,99
3164,31;1,04
3162,38;1,09
3160,45;1,13
3158,52;1,18
3156,59;1,23
3154,66;1,28
3152,73;1,34
3150,80;1,39
3148,87;1,45
3146,94;1,52
3145,01;1,58
3143,08;1,64
3141,15;1,71
3139,22;1,77
3137,29;1,85
3135,36;1,92
3133,43;1,99
3131,50;2,07
3129,57;2,14
3127,64;2,22
3125,71;2,30
3123,78;2,38
3121,85;2,46
3119,92;2,54
3117,99;2,62
3116,06;2,71
3114,13;2,80
3112,20;2,89
3110,27;2,97
3108,34;3,06
3106,41;3,15
3104,48;3,24
3102,55;3,33
3100,62;3,42
3098,69;3,51
3096,76;3,59
3094,83;3,68
3092,90;3,76
3090,97;3,83
3089,04;3,91
3087,11;3,98
3085,18;4,05
3083,25;4,11
3081,32;4,18
3079,39;4,23
3077,46;4,29
3075,53;4,34
3073,60;4,39
3071,67;4,43
3069,74;4,46
3067,81;4,50
3065,88;4,54
3063,95;4,57
3062,02;4,61
3060,09;4,66
3058,16;4,70
3056,23;4,74
3054,30;4,77
3052,37;4,80
3050,44;4,82
3048,51;4,84
3046,58;4,84
3044,65;4,84
3042,72;4,83
3040,79;4,82
3038,86;4,80
3036,93;4,77
3035,00;4,72
3033,07;4,66
3031,14;4,58
3029,21;4,48
3027,28;4,38
3025,35;4,27
3023,42;4,14
3021,49;4,01
3019,56;3,85
3017,63;3,69
3015,70;3,52
3013,77;3,33
3011,84;3,14
3009,91;2,93
3007,98;2,70
3006,05;2,46
3004,12;2,21
3002,19;1,96
3000,26;1,70
2998,33;1,45
2996,40;1,22
2994,47;0,99
2992,54;0,79
2990,61;0,61
2988,68;0,45
2986,75;0,32
2984,82;0,21
2982,89;0,13
2980,96;0,08
2979,03;0,04
2977,10;0,02
2975,17;0,02
2973,24;0,01
2971,31;0,01
2969,38;0,01
2967,45;0,01
2965,52;0,01
2963,59;0,01
2961,66;0,01
2959,73;0,01
2957,80;0,01
2955,87;0,01
2953,94;0,00
2952,01;0,00
2950,08;0,00
2948,15;0,00
2946,22;0,00
2944,29;0,00
2942,36;0,00
2940,43;0,00
2938,50;0,00
2936,57;0,00
2934,64;0,00
2932,71;0,00
2930,78;0,00
2928,85;0,00
2926,92;0,00
2924,99;0,00
2923,06;0,00
2921,13;0,00
2919,20;0,00
2917,27;0,00
2915,34;0,00
2913,41;0,00
2911,48;0,00
2909,55;0,00
2907,62;0,00
2905,69;0,00
2903,76;0,00
2901,83;0,00
2899,90;0,00
2897,97;0,00
2896,04;0,00
2894,11;0,00
2892,18;0,00
2890,25;0,00
2888,32;0,00
2886,39;0,00
2884,46;0,00
2882,53;0,00
2880,60;0,00
2878,67;0,00
2876,74;0,00
2874,81;0,00
2872,88;0,00
2870,95;0,00
2869,02;0,00
2867,09;0,00
2865,16;0,01
2863,23;0,01
2861,30;0,01
2859,37;0,01
2857,44;0,01
2855,51;0,01
2853,58;0,01
2851,65;0,01
2849,72;0,01
2847,79;0,01
2845,86;0,02
2843,93;0,02
2842,00;0,01
2840,07;0,01
2838,14;0,02
2836,21;0,03
2834,28;0,07
2832,35;0,15
2830,42;0,27
2828,49;0,44
2826,56;0,65
2824,63;0,89
2822,70;1,17
2820,77;1,48
2818,84;1,81
2816,91;2,16
2814,98;2,53
2813,05;2,91
2811,12;3,32
2809,19;3,74
2807,26;4,18
2805,33;4,62
2803,40;5,08
2801,47;5,53
2799,54;5,98
2797,61;6,43
2795,68;6,88
2793,75;7,33
2791,82;7,79
2789,89;8,26
2787,96;8,74
2786,03;9,22
2784,10;9,71
2782,17;10,19
2780,24;10,66
2778,31;11,12
2776,38;11,56
2774,45;11,96
2772,52;12,33
2770,59;12,67
2768,66;12,97
2766,73;13,23
2764,80;13,45
2762,87;13,63
2760,94;13,77
2759,01;13,90
2757,08;14,02
2755,15;14,13
2753,22;14,22
2751,29;14,29
2749,36;14,31
2747,43;14,31
2745,50;14,26
2743,57;14,18
2741,64;14,04
2739,71;13,86
2737,78;13,61
2735,85;13,31
2733,92;12,98
2731,99;12,68
2730,06;12,47
2728,13;12,41
2726,20;12,47
2724,27;12,60
2722,34;12,77
2720,41;12,98
2718,48;13,24
2716,55;13,53
2714,62;13,88
2712,69;14,23
2710,76;14,56
2708,83;14,84
2706,90;15,07
2704,97;15,24
2703,04;15,36
2701,11;15,43
2699,18;15,46
2697,25;15,46
2695,32;15,42
2693,39;15,37
2691,46;15,30
2689,53;15,23
2687,60;15,17
2685,67;15,13
2683,74;15,11
2681,81;15,11
2679,88;15,11
2677,95;15,11
2676,02;15,11
2674,09;15,11
2672,16;15,11
2670,23;15,15
2668,30;15,24
2666,37;15,37
2664,44;15,53
2662,51;15,71
2660,58;15,90
2658,65;16,10
2656,72;16,30
2654,79;16,48
2652,86;16,65
2650,93;16,80
2649,00;16,94
2647,07;17,07
2645,14;17,19
2643,21;17,30
2641,28;17,40
2639,35;17,50
2637,42;17,60
2635,49;17,69
2633,56;17,77
2631,63;17,86
2629,70;17,94
2627,77;18,01
2625,84;18,09
2623,91;18,17
2621,98;18,25
2620,05;18,33
2618,12;18,41
2616,19;18,49
2614,26;18,58
2612,33;18,67
2610,40;18,77
2608,47;18,87
2606,54;18,97
2604,61;19,09
2602,68;19,21
2600,75;19,34
2598,82;19,48
2596,89;19,63
2594,96;19,79
2593,03;19,95
2591,10;20,12
2589,17;20,30
2587,24;20,49
2585,31;20,68
2583,38;20,87
2581,45;21,08
2579,52;21,28
2577,59;21,49
2575,66;21,70
2573,73;21,90
2571,80;22,11
2569,87;22,30
2567,94;22,49
2566,01;22,67
2564,08;22,85
2562,15;23,01
2560,22;23,16
2558,29;23,30
2556,36;23,44
2554,43;23,56
2552,50;23,68
2550,57;23,79
2548,64;23,89
2546,71;23,99
2544,78;24,09
2542,85;24,18
2540,92;24,26
2538,99;24,34
2537,06;24,42
2535,13;24,49
2533,20;24,56
2531,27;24,64
2529,34;24,73
2527,41;24,83
2525,48;24,94
2523,55;25,04
2521,62;25,14
2519,69;25,25
2517,76;25,35
2515,83;25,44
2513,90;25,54
2511,97;25,63
2510,04;25,71
2508,11;25,80
2506,18;25,87
2504,25;25,94
2502,32;26,01
2500,39;26,08
2498,46;26,14
2496,53;26,20
2494,60;26,26
2492,67;26,31
2490,74;26,36
2488,81;26,40
2486,88;26,44
2484,95;26,47
2483,02;26,50
2481,09;26,53
2479,16;26,56
2477,23;26,58
2475,30;26,60
2473,37;26,62
2471,44;26,64
2469,51;26,66
2467,58;26,67
2465,65;26,69
2463,72;26,70
2461,79;26,71
2459,86;26,71
2457,93;26,72
2456,00;26,72
2454,07;26,71
2452,14;26,71
2450,21;26,70
2448,28;26,70
2446,35;26,69
2444,42;26,67
2442,49;26,66
2440,56;26,64
2438,63;26,62
2436,70;26,60
2434,77;26,58
2432,84;26,56
2430,91;26,53
2428,98;26,51
2427,05;26,49
2425,12;26,46
2423,19;26,43
2421,26;26,41
2419,33;26,38
2417,40;26,36
2415,47;26,33
2413,54;26,31
2411,61;26,28
2409,68;26,27
2407,75;26,25
2405,82;26,24
2403,89;26,23
2401,96;26,23
2400,03;26,23
2398,10;26,23
2396,17;26,24
2394,24;26,25
2392,31;26,26
2390,38;26,26
2388,45;26,26
2386,52;26,24
2384,59;26,20
2382,66;26,13
2380,73;26,03
2378,80;25,93
2376,87;25,85
2374,94;25,81
2373,01;25,80
2371,08;25,81
2369,15;25,80
2367,22;25,77
2365,29;25,73
2363,36;25,68
2361,43;25,62
2359,50;25,57
2357,57;25,54
2355,64;25,50
2353,71;25,46
2351,78;25,43
2349,85;25,42
2347,92;25,40
2345,99;25,38
2344,06;25,37
2342,13;25,35
2340,20;25,29
2338,27;25,15
2336,34;24,98
2334,41;24,95
2332,48;25,10
2330,55;25,28
2328,62;25,42
2326,69;25,48
2324,76;25,48
2322,83;25,47
2320,90;25,49
2318,97;25,55
2317,04;25,62
2315,11;25,65
2313,18;25,68
2311,25;25,72
2309,32;25,78
2307,39;25,85
2305,46;25,92
2303,53;25,99
2301,60;26,04
2299,67;26,09
2297,74;26,14
2295,81;26,18
2293,88;26,21
2291,95;26,23
2290,02;26,26
2288,09;26,28
2286,16;26,31
2284,23;26,33
2282,30;26,35
2280,37;26,38
2278,44;26,41
2276,51;26,43
2274,58;26,45
2272,65;26,46
2270,72;26,47
2268,79;26,49
2266,86;26,50
2264,93;26,51
2263,00;26,53
2261,07;26,54
2259,14;26,56
2257,21;26,57
2255,28;26,58
2253,35;26,59
2251,42;26,60
2249,49;26,61
2247,56;26,61
2245,63;26,62
2243,70;26,62
2241,77;26,62
2239,84;26,62
2237,91;26,62
2235,98;26,61
2234,05;26,61
2232,12;26,60
2230,19;26,59
2228,26;26,58
2226,33;26,57
2224,40;26,56
2222,47;26,55
2220,54;26,54
2218,61;26,53
2216,68;26,52
2214,75;26,51
2212,82;26,49
2210,89;26,48
2208,96;26,46
2207,03;26,44
2205,10;26,43
2203,17;26,42
2201,24;26,40
2199,31;26,39
2197,38;26,38
2195,45;26,36
2193,52;26,34
2191,59;26,33
2189,66;26,31
2187,73;26,29
2185,80;26,28
2183,87;26,27
2181,94;26,27
2180,01;26,28
2178,08;26,28
2176,15;26,29
2174,22;26,30
2172,29;26,31
2170,36;26,32
2168,43;26,33
2166,50;26,34
2164,57;26,35
2162,64;26,37
2160,71;26,38
2158,78;26,40
2156,85;26,41
2154,92;26,43
2152,99;26,46
2151,06;26,49
2149,13;26,53
2147,20;26,59
2145,27;26,65
2143,34;26,72
2141,41;26,79
2139,48;26,85
2137,55;26,91
2135,62;26,96
2133,69;27,01
2131,76;27,06
2129,83;27,10
2127,90;27,14
2125,97;27,19
2124,04;27,23
2122,11;27,27
2120,18;27,31
2118,25;27,35
2116,32;27,39
2114,39;27,44
2112,46;27,48
2110,53;27,53
2108,60;27,57
2106,67;27,62
2104,74;27,67
2102,81;27,71
2100,88;27,76
2098,95;27,81
2097,02;27,86
2095,09;27,90
2093,16;27,95
2091,23;28,00
2089,30;28,05
2087,37;28,10
2085,44;28,15
2083,51;28,20
2081,58;28,25
2079,65;28,29
2077,72;28,34
2075,79;28,39
2073,86;28,44
2071,93;28,48
2070,00;28,53
2068,07;28,57
2066,14;28,61
2064,21;28,66
2062,28;28,71
2060,35;28,75
2058,42;28,79
2056,49;28,83
2054,56;28,87
2052,63;28,91
2050,70;28,94
2048,77;28,98
2046,84;29,00
2044,91;29,04
2042,98;29,07
2041,05;29,10
2039,12;29,14
2037,19;29,19
2035,26;29,24
2033,33;29,29
2031,40;29,35
2029,47;29,42
2027,54;29,49
2025,61;29,58
2023,68;29,67
2021,75;29,79
2019,82;29,91
2017,89;30,06
2015,96;30,22
2014,03;30,38
2012,10;30,53
2010,17;30,67
2008,24;30,80
2006,31;30,91
2004,38;31,02
2002,45;31,11
2000,52;31,20
1998,59;31,27
1996,66;31,35
1994,73;31,41
1992,80;31,47
1990,87;31,54
1988,94;31,63
1987,01;31,70
1985,08;31,77
1983,15;31,83
1981,22;31,88
1979,29;31,93
1977,36;31,99
1975,43;32,04
1973,50;32,08
1971,57;32,12
1969,64;32,15
1967,71;32,18
1965,78;32,24
1963,85;32,29
1961,92;32,33
1959,99;32,36
1958,06;32,39
1956,13;32,41
1954,20;32,43
1952,27;32,46
1950,34;32,48
1948,41;32,49
1946,48;32,49
1944,55;32,48
1942,62;32,47
1940,69;32,48
1938,76;32,49
1936,83;32,52
1934,90;32,56
1932,97;32,61
1931,04;32,65
1929,11;32,66
1927,18;32,68
1925,25;32,68
1923,32;32,67
1921,39;32,70
1919,46;32,68
1917,53;32,67
1915,60;32,69
1913,67;32,71
1911,74;32,71
1909,81;32,72
1907,88;32,74
1905,95;32,77
1904,02;32,78
1902,09;32,79
1900,16;32,79
1898,23;32,79
1896,30;32,78
1894,37;32,76
1892,44;32,76
1890,51;32,76
1888,58;32,78
1886,65;32,82
1884,72;32,84
1882,79;32,86
1880,86;32,87
1878,93;32,88
1877,00;32,90
1875,07;32,89
1873,14;32,87
1871,21;32,81
1869,28;32,81
1867,35;32,89
1865,42;32,99
1863,49;33,03
1861,56;33,05
1859,63;33,06
1857,70;33,07
1855,77;33,07
1853,84;33,06
1851,91;33,03
1849,98;32,98
1848,05;33,00
1846,12;32,98
1844,19;32,89
1842,26;32,92
1840,33;32,96
1838,40;32,96
1836,47;32,90
1834,54;32,81
1832,61;32,71
1830,68;32,62
1828,75;32,62
1826,82;32,62
1824,89;32,60
1822,96;32,59
1821,03;32,57
1819,10;32,49
1817,17;32,39
1815,24;32,27
1813,31;32,16
1811,38;32,05
1809,45;31,96
1807,52;31,82
1805,59;31,66
1803,66;31,42
1801,73;31,19
1799,80;31,00
1797,87;30,83
1795,94;30,66
1794,01;30,44
1792,08;30,18
1790,15;30,03
1788,22;29,89
1786,29;29,62
1784,36;29,30
1782,43;29,02
1780,50;28,72
1778,57;28,39
1776,64;28,14
1774,71;27,79
1772,78;27,40
1770,85;27,17
1768,92;26,91
1766,99;26,56
1765,06;26,23
1763,13;25,68
1761,20;24,95
1759,27;24,09
1757,34;22,89
1755,41;21,36
1753,48;19,64
1751,55;17,60
1749,62;15,80
1747,69;14,65
1745,76;14,20
1743,83;14,28
1741,90;14,67
1739,97;15,10
1738,04;15,59
1736,11;15,80
1734,18;15,74
1732,25;15,75
1730,32;15,85
1728,39;15,93
1726,46;15,98
1724,53;15,96
1722,60;15,90
1720,67;15,81
1718,74;15,45
1716,81;14,90
1714,88;14,39
1712,95;13,90
1711,02;13,35
1709,09;12,82
1707,16;12,34
1705,23;11,98
1703,30;11,74
1701,37;11,47
1699,44;11,29
1697,51;11,19
1695,58;10,92
1693,65;10,74
1691,72;10,56
1689,79;10,36
1687,86;10,17
1685,93;9,83
1684,00;9,40
1682,07;9,10
1680,14;8,84
1678,21;8,56
1676,28;8,22
1674,35;7,85
1672,42;7,58
1670,49;7,33
1668,56;7,05
1666,63;6,83
1664,70;6,64
1662,77;6,43
1660,84;6,25
1658,91;6,10
1656,98;6,03
1655,05;5,93
1653,12;5,71
1651,19;5,57
1649,26;5,57
1647,33;5,55
1645,40;5,53
1643,47;5,53
1641,54;5,54
1639,61;5,56
1637,68;5,59
1635,75;5,60
1633,82;5,62
1631,89;5,69
1629,96;5,86
1628,03;6,19
1626,10;6,59
1624,17;6,98
1622,24;7,37
1620,31;7,75
1618,38;8,04
1616,45;8,28
1614,52;8,56
1612,59;8,80
1610,66;9,00
1608,73;9,20
1606,80;9,45
1604,87;9,78
1602,94;10,17
1601,01;10,59
1599,08;11,02
1597,15;11,46
1595,22;11,90
1593,29;12,31
1591,36;12,67
1589,43;13,02
1587,50;13,37
1585,57;13,70
1583,64;14,03
1581,71;14,33
1579,78;14,61
1577,85;14,93
1575,92;15,12
1573,99;15,46
1572,06;15,74
1570,13;15,97
1568,20;16,21
1566,27;16,45
1564,34;16,68
1562,41;16,90
1560,48;17,05
1558,55;17,20
1556,62;17,41
1554,69;17,63
1552,76;17,84
1550,83;18,05
1548,90;18,26
1546,97;18,39
1545,04;18,48
1543,11;18,65
1541,18;18,88
1539,25;18,94
1537,32;19,06
1535,39;19,14
1533,46;19,17
1531,53;19,16
1529,60;19,09
1527,67;18,90
1525,74;18,68
1523,81;18,49
1521,88;18,01
1519,95;17,37
1518,02;16,88
1516,09;16,41
1514,16;16,17
1512,23;16,04
1510,30;16,03
1508,37;15,94
1506,44;15,62
1504,51;15,28
1502,58;15,04
1500,65;14,70
1498,72;14,26
1496,79;13,52
1494,86;12,66
1492,93;11,85
1491,00;10,87
1489,07;9,80
1487,14;8,80
1485,21;7,82
1483,28;6,77
1481,35;5,57
1479,42;4,31
1477,49;3,10
1475,56;1,96
1473,63;1,03
1471,70;0,36
1469,77;0,08
1467,84;0,01
1465,91;0,01
1463,98;0,00
1462,05;0,00
1460,12;0,00
1458,19;0,00
1456,26;0,00
1454,33;0,01
1452,40;0,01
1450,47;0,04
1448,54;0,06
1446,61;0,12
1444,68;0,20
1442,75;0,34
1440,82;0,53
1438,89;0,80
1436,96;1,23
1435,03;1,91
1433,10;2,78
1431,17;3,96
1429,24;5,32
1427,31;6,58
1425,38;7,58
1423,45;8,44
1421,52;9,07
1419,59;9,56
1417,66;10,01
1415,73;10,40
1413,80;10,68
1411,87;10,88
1409,94;11,00
1408,01;11,07
1406,08;11,08
1404,15;11,06
1402,22;10,98
1400,29;10,80
1398,36;10,47
1396,43;9,96
1394,50;9,09
1392,57;8,00
1390,64;6,84
1388,71;5,46
1386,78;3,85
1384,85;2,40
1382,92;1,36
1380,99;0,66
1379,06;0,26
1377,13;0,15
1375,20;0,27
1373,27;0,63
1371,34;1,06
1369,41;1,28
1367,48;1,27
1365,55;1,42
1363,62;2,15
1361,69;3,31
1359,76;4,37
1357,83;5,08
1355,90;5,47
1353,97;5,69
1352,04;5,90
1350,11;6,22
1348,18;6,64
1346,25;7,02
1344,32;7,29
1342,39;7,47
1340,46;7,70
1338,53;8,15
1336,60;8,74
1334,67;9,35
1332,74;9,90
1330,81;10,38
1328,88;10,77
1326,95;11,07
1325,02;11,27
1323,09;11,37
1321,16;11,36
1319,23;11,25
1317,30;11,09
1315,37;10,91
1313,44;10,74
1311,51;10,61
1309,58;10,50
1307,65;10,41
1305,72;10,35
1303,79;10,35
1301,86;10,43
1299,93;10,61
1298,00;10,88
1296,07;11,19
1294,14;11,50
1292,21;11,79
1290,28;12,05
1288,35;12,26
1286,42;12,44
1284,49;12,58
1282,56;12,65
1280,63;12,66
1278,70;12,62
1276,77;12,58
1274,84;12,59
1272,91;12,65
1270,98;12,77
1269,05;12,90
1267,12;13,05
1265,19;13,16
1263,26;13,24
1261,33;13,31
1259,40;13,40
1257,47;13,48
1255,54;13,53
1253,61;13,51
1251,68;13,44
1249,75;13,34
1247,82;13,21
1245,89;13,07
1243,96;12,97
1242,03;12,89
1240,10;12,83
1238,17;12,72
1236,24;12,55
1234,31;12,37
1232,38;12,29
1230,45;12,37
1228,52;12,58
1226,59;12,88
1224,66;13,20
1222,73;13,52
1220,80;13,79
1218,87;14,02
1216,94;14,19
1215,01;14,33
1213,08;14,41
1211,15;14,46
1209,22;14,46
1207,29;14,43
1205,36;14,36
1203,43;14,30
1201,50;14,26
1199,57;14,27
1197,64;14,27
1195,71;14,27
1193,78;14,25
1191,85;14,24
1189,92;14,23
1187,99;14,23
1186,06;14,17
1184,13;14,03
1182,20;13,79
1180,27;13,49
1178,34;13,16
1176,41;12,81
1174,48;12,40
1172,55;11,93
1170,62;11,54
1168,69;11,35
1166,76;11,37
1164,83;11,41
1162,90;11,40
1160,97;11,31
1159,04;11,19
1157,11;11,08
1155,18;11,03
1153,25;11,07
1151,32;11,19
1149,39;11,37
1147,46;11,59
1145,53;11,83
1143,60;12,09
1141,67;12,34
1139,74;12,60
1137,81;12,83
1135,88;13,05
1133,95;13,22
1132,02;13,35
1130,09;13,43
1128,16;13,43
1126,23;13,39
1124,30;13,31
1122,37;13,23
1120,44;13,16
1118,51;13,14
1116,58;13,15
1114,65;13,17
1112,72;13,18
1110,79;13,19
1108,86;13,19
1106,93;13,16
1105,00;13,10
1103,07;13,00
1101,14;12,87
1099,21;12,70
1097,28;12,46
1095,35;12,17
1093,42;11,84
1091,49;11,52
1089,56;11,26
1087,63;11,12
1085,70;11,13
1083,77;11,28
1081,84;11,51
1079,91;11,78
1077,98;12,08
1076,05;12,40
1074,12;12,74
1072,19;13,06
1070,26;13,36
1068,33;13,63
1066,40;13,88
1064,47;14,16
1062,54;14,49
1060,61;14,86
1058,68;15,23
1056,75;15,54
1054,82;15,74
1052,89;15,84
1050,96;15,87
1049,03;15,87
1047,10;15,86
1045,17;15,86
1043,24;15,88
1041,31;15,90
1039,38;15,94
1037,45;15,98
1035,52;16,07
1033,59;16,19
1031,66;16,36
1029,73;16,59
1027,80;16,85
1025,87;17,08
1023,94;17,27
1022,01;17,43
1020,08;17,59
1018,15;17,77
1016,22;17,94
1014,29;18,06
1012,36;18,15
1010,43;18,25
1008,50;18,38
1006,57;18,54
1004,64;18,67
1002,71;18,73
1000,78;18,75
998,85;18,77
996,92;18,80
994,99;18,86
993,06;18,91
991,13;18,95
989,20;18,94
987,27;18,88
985,34;18,77
983,41;18,62
981,48;18,42
979,55;18,19
977,62;17,94
975,69;17,69
973,76;17,46
971,83;17,27
969,90;17,11
967,97;17,00
966,04;16,97
964,11;17,04
962,18;17,18
960,25;17,35
958,32;17,47
956,39;17,53
954,46;17,53
952,53;17,55
950,60;17,60
948,67;17,65
946,74;17,68
944,81;17,69
942,88;17,70
940,95;17,69
939,02;17,66
937,09;17,62
935,16;17,60
933,23;17,61
931,30;17,66
929,37;17,69
927,44;17,71
925,51;17,67
923,58;17,56
921,65;17,37
919,72;17,19
917,79;17,14
915,86;17,27
913,93;17,43
912,00;17,49
910,07;17,44
908,14;17,33
906,21;17,19
904,28;17,00
902,35;16,71
900,42;16,33
898,49;15,85
896,56;15,30
894,63;14,74
892,70;14,22
890,77;13,79
888,84;13,52
886,91;13,44
884,98;13,45
883,05;13,47
881,12;13,45
879,19;13,43
877,26;13,40
875,33;13,33
873,40;13,21
871,47;13,04
869,54;12,85
867,61;12,65
865,68;12,46
863,75;12,28
861,82;12,12
859,89;11,99
857,96;11,84
856,03;11,67
854,10;11,47
852,17;11,25
850,24;11,03
848,31;10,83
846,38;10,69
844,45;10,58
842,52;10,51
840,59;10,45
838,66;10,38
836,73;10,23
834,80;10,05
832,87;9,86
830,94;9,69
829,01;9,51
827,08;9,32
825,15;9,08
823,22;8,83
821,29;8,56
819,36;8,30
817,43;8,07
815,50;7,88
813,57;7,76
811,64;7,69
809,71;7,63
807,78;7,55
805,85;7,47
803,92;7,47
801,99;7,53
800,06;7,58
798,13;7,57
796,20;7,49
794,27;7,38
792,34;7,25
790,41;7,11
788,48;6,93
786,55;6,70
784,62;6,42
782,69;6,14
780,76;5,91
778,83;5,73
776,90;5,56
774,97;5,39
773,04;5,22
771,11;5,06
769,18;4,92
767,25;4,82
765,32;4,78
763,39;4,78
761,46;4,76
759,53;4,70
757,60;4,60
755,67;4,46
753,74;4,32
751,81;4,18
749,88;4,06
747,95;3,95
746,02;3,82
744,09;3,66
742,16;3,47
740,23;3,32
738,30;3,22
736,37;3,15
734,44;3,04
732,51;2,86
730,58;2,61
728,65;2,30
726,72;2,01
724,79;1,77
722,86;1,62
720,93;1,67
719,00;2,02
717,07;2,53
715,14;3,05
713,21;3,49
711,28;3,86
709,35;4,16
707,42;4,40
705,49;4,57
703,56;4,68
701,63;4,73
699,70;4,76
697,77;4,84
695,84;5,00
693,91;5,17
691,98;5,33
690,05;5,45
688,12;5,55
686,19;5,61
684,26;5,66
682,33;5,69
680,40;5,71
678,47;5,72
676,54;5,72
674,61;5,73
672,68;5,73
670,75;5,73
668,82;5,72
666,89;5,77
664,96;5,77
663,03;5,75
661,10;5,74
659,17;5,75
657,24;5,78
655,31;5,81
653,38;5,85
651,45;5,90
649,52;5,95
647,59;6,00
645,66;6,05
643,73;6,09
641,80;6,14
639,87;6,19
637,94;6,24
636,01;6,28
634,08;6,32
632,15;6,36
630,22;6,41
628,29;6,44
626,36;6,47
624,43;6,51
622,50;6,55
620,57;6,59
618,64;6,63
616,71;6,66
614,78;6,71
612,85;6,75
610,92;6,79
608,99;6,81
607,06;6,83
605,13;6,86
603,20;6,90
601,27;6,95
599,34;7,03
597,41;7,12
595,48;7,20
593,55;7,27
591,62;7,34
589,69;7,42
587,76;7,50
585,83;7,57
583,90;7,64
581,97;7,71
580,04;7,78
578,11;7,86
576,18;7,93
574,25;8,01
572,32;8,08
570,39;8,15
568,46;8,22
566,53;8,29
564,60;8,36
562,67;8,46
560,74;8,55
558,81;8,65
556,88;8,75
554,95;8,85
553,02;8,94
551,09;9,04
549,16;9,14
547,23;9,25
545,30;9,37
543,37;9,48
541,44;9,58
539,51;9,68
537,58;9,77
535,65;9,90
533,72;10,02
531,79;10,14
529,86;10,25
527,93;10,35
526,00;10,46
524,07;10,61
522,14;10,75
520,21;10,87
518,28;11,01
516,35;11,17
514,42;11,35
512,49;11,51
510,56;11,66
508,63;11,81
506,70;11,97
504,77;12,11
502,84;12,26
500,91;12,40
