Created as New Dataset;Amostra 397 por Laboratório data terça-feira, setembro 24 2024
cm-1;%T
4000,00;4,46
3998,07;4,47
3996,14;4,47
3994,21;4,48
3992,28;4,49
3990,35;4,51
3988,42;4,52
3986,49;4,53
3984,56;4,55
3982,63;4,56
3980,70;4,58
3978,77;4,59
3976,84;4,60
3974,91;4,61
3972,98;4,62
3971,05;4,63
3969,12;4,63
3967,19;4,64
3965,26;4,65
3963,33;4,65
3961,40;4,66
3959,47;4,66
3957,54;4,67
3955,61;4,67
3953,68;4,68
3951,75;4,68
3949,82;4,69
3947,89;4,69
3945,96;4,70
3944,03;4,70
3942,10;4,70
3940,17;4,70
3938,24;4,71
3936,31;4,71
3934,38;4,71
3932,45;4,71
3930,52;4,72
3928,59;4,72
3926,66;4,72
3924,73;4,73
3922,80;4,73
3920,87;4,73
3918,94;4,73
3917,01;4,73
3915,08;4,74
3913,15;4,74
3911,22;4,74
3909,29;4,74
3907,36;4,74
3905,43;4,74
3903,50;4,75
3901,57;4,75
3899,64;4,76
3897,71;4,76
3895,78;4,76
3893,85;4,76
3891,92;4,76
3889,99;4,76
3888,06;4,76
3886,13;4,77
3884,20;4,77
3882,27;4,77
3880,34;4,77
3878,41;4,77
3876,48;4,77
3874,55;4,77
3872,62;4,78
3870,69;4,78
3868,76;4,78
3866,83;4,78
3864,90;4,78
3862,97;4,78
3861,04;4,78
3859,11;4,78
3857,18;4,78
3855,25;4,77
3853,32;4,78
3851,39;4,78
3849,46;4,78
3847,53;4,77
3845,60;4,77
3843,67;4,76
3841,74;4,76
3839,81;4,76
3837,88;4,76
3835,95;4,75
3834,02;4,75
3832,09;4,75
3830,16;4,74
3828,23;4,74
3826,30;4,73
3824,37;4,73
3822,44;4,72
3820,51;4,72
3818,58;4,72
3816,65;4,71
3814,72;4,71
3812,79;4,70
3810,86;4,70
3808,93;4,69
3807,00;4,69
3805,07;4,69
3803,14;4,68
3801,21;4,68
3799,28;4,67
3797,35;4,67
3795,42;4,66
3793,49;4,65
3791,56;4,64
3789,63;4,63
3787,70;4,62
3785,77;4,61
3783,84;4,60
3781,91;4,59
3779,98;4,59
3778,05;4,58
3776,12;4,57
3774,19;4,56
3772,26;4,55
3770,33;4,54
3768,40;4,53
3766,47;4,51
3764,54;4,50
3762,61;4,49
3760,68;4,47
3758,75;4,46
3756,82;4,44
3754,89;4,43
3752,96;4,41
3751,03;4,40
3749,10;4,38
3747,17;4,36
3745,24;4,34
3743,31;4,32
3741,38;4,29
3739,45;4,27
3737,52;4,24
3735,59;4,21
3733,66;4,19
3731,73;4,16
3729,80;4,13
3727,87;4,09
3725,94;4,06
3724,01;4,02
3722,08;3,98
3720,15;3,94
3718,22;3,90
3716,29;3,86
3714,36;3,81
3712,43;3,76
3710,50;3,70
3708,57;3,64
3706,64;3,58
3704,71;3,51
3702,78;3,44
3700,85;3,37
3698,92;3,29
3696,99;3,21
3695,06;3,13
3693,13;3,04
3691,20;2,95
3689,27;2,85
3687,34;2,75
3685,41;2,65
3683,48;2,56
3681,55;2,46
3679,62;2,36
3677,69;2,26
3675,76;2,15
3673,83;2,04
3671,90;1,94
3669,97;1,83
3668,04;1,72
3666,11;1,62
3664,18;1,53
3662,25;1,44
3660,32;1,35
3658,39;1,28
3656,46;1,20
3654,53;1,12
3652,60;1,06
3650,67;0,99
3648,74;0,92
3646,81;0,86
3644,88;0,81
3642,95;0,76
3641,02;0,71
3639,09;0,67
3637,16;0,63
3635,23;0,59
3633,30;0,56
3631,37;0,54
3629,44;0,51
3627,51;0,47
3625,58;0,44
3623,65;0,42
3621,72;0,40
3619,79;0,38
3617,86;0,36
3615,93;0,34
3614,00;0,32
3612,07;0,30
3610,14;0,29
3608,21;0,27
3606,28;0,25
3604,35;0,24
3602,42;0,23
3600,49;0,22
3598,56;0,20
3596,63;0,20
3594,70;0,19
3592,77;0,18
3590,84;0,17
3588,91;0,16
3586,98;0,15
3585,05;0,14
3583,12;0,13
3581,19;0,13
3579,26;0,12
3577,33;0,12
3575,40;0,11
3573,47;0,10
3571,54;0,10
3569,61;0,10
3567,68;0,09
3565,75;0,09
3563,82;0,08
3561,89;0,08
3559,96;0,07
3558,03;0,07
3556,10;0,07
3554,17;0,07
3552,24;0,06
3550,31;0,06
3548,38;0,06
3546,45;0,05
3544,52;0,05
3542,59;0,05
3540,66;0,05
3538,73;0,05
3536,80;0,04
3534,87;0,05
3532,94;0,05
3531,01;0,05
3529,08;0,04
3527,15;0,04
3525,22;0,04
3523,29;0,04
3521,36;0,04
3519,43;0,04
3517,50;0,04
3515,57;0,03
3513,64;0,03
3511,71;0,03
3509,78;0,03
3507,85;0,03
3505,92;0,03
3503,99;0,02
3502,06;0,02
3500,13;0,02
3498,20;0,02
3496,27;0,02
3494,34;0,02
3492,41;0,02
3490,48;0,02
3488,55;0,02
3486,62;0,02
3484,69;0,02
3482,76;0,02
3480,83;0,02
3478,90;0,02
3476,97;0,02
3475,04;0,02
3473,11;0,02
3471,18;0,01
3469,25;0,01
3467,32;0,01
3465,39;0,02
3463,46;0,02
3461,53;0,02
3459,60;0,02
3457,67;0,02
3455,74;0,02
3453,81;0,02
3451,88;0,02
3449,95;0,02
3448,02;0,02
3446,09;0,02
3444,16;0,02
3442,23;0,02
3440,30;0,02
3438,37;0,01
3436,44;0,01
3434,51;0,01
3432,58;0,01
3430,65;0,01
3428,72;0,01
3426,79;0,01
3424,86;0,01
3422,93;0,01
3421,00;0,01
3419,07;0,01
3417,14;0,01
3415,21;0,01
3413,28;0,01
3411,35;0,01
3409,42;0,01
3407,49;0,01
3405,56;0,01
3403,63;0,01
3401,70;0,01
3399,77;0,01
3397,84;0,01
3395,91;0,01
3393,98;0,01
3392,05;0,01
3390,12;0,01
3388,19;0,01
3386,26;0,01
3384,33;0,01
3382,40;0,01
3380,47;0,01
3378,54;0,01
3376,61;0,01
3374,68;0,01
3372,75;0,01
3370,82;0,01
3368,89;0,00
3366,96;0,00
3365,03;0,01
3363,10;0,01
3361,17;0,01
3359,24;0,01
3357,31;0,01
3355,38;0,01
3353,45;0,01
3351,52;0,01
3349,59;0,01
3347,66;0,01
3345,73;0,01
3343,80;0,01
3341,87;0,01
3339,94;0,01
3338,01;0,01
3336,08;0,01
3334,15;0,01
3332,22;0,01
3330,29;0,01
3328,36;0,01
3326,43;0,01
3324,50;0,01
3322,57;0,01
3320,64;0,01
3318,71;0,01
3316,78;0,01
3314,85;0,01
3312,92;0,01
3310,99;0,01
3309,06;0,01
3307,13;0,01
3305,20;0,01
3303,27;0,01
3301,34;0,01
3299,41;0,01
3297,48;0,01
3295,55;0,01
3293,62;0,01
3291,69;0,01
3289,76;0,01
3287,83;0,01
3285,90;0,01
3283,97;0,01
3282,04;0,01
3280,11;0,01
3278,18;0,01
3276,25;0,01
3274,32;0,01
3272,39;0,01
3270,46;0,01
3268,53;0,01
3266,60;0,02
3264,67;0,02
3262,74;0,02
3260,81;0,02
3258,88;0,02
3256,95;0,02
3255,02;0,02
3253,09;0,02
3251,16;0,02
3249,23;0,02
3247,30;0,02
3245,37;0,02
3243,44;0,02
3241,51;0,02
3239,58;0,02
3237,65;0,03
3235,72;0,03
3233,79;0,03
3231,86;0,03
3229,93;0,03
3228,00;0,03
3226,07;0,04
3224,14;0,04
3222,21;0,04
3220,28;0,04
3218,35;0,04
3216,42;0,04
3214,49;0,05
3212,56;0,05
3210,63;0,05
3208,70;0,06
3206,77;0,06
3204,84;0,06
3202,91;0,06
3200,98;0,07
3199,05;0,07
3197,12;0,08
3195,19;0,08
3193,26;0,09
3191,33;0,09
3189,40;0,10
3187,47;0,10
3185,54;0,11
3183,61;0,11
3181,68;0,12
3179,75;0,13
3177,82;0,14
3175,89;0,14
3173,96;0,15
3172,03;0,16
3170,10;0,17
3168,17;0,18
3166,24;0,19
3164,31;0,20
3162,38;0,22
3160,45;0,23
3158,52;0,24
3156,59;0,26
3154,66;0,27
3152,73;0,28
3150,80;0,30
3148,87;0,32
3146,94;0,33
3145,01;0,35
3143,08;0,37
3141,15;0,39
3139,22;0,41
3137,29;0,43
3135,36;0,46
3133,43;0,48
3131,50;0,50
3129,57;0,53
3127,64;0,55
3125,71;0,58
3123,78;0,61
3121,85;0,63
3119,92;0,66
3117,99;0,69
3116,06;0,72
3114,13;0,75
3112,20;0,78
3110,27;0,81
3108,34;0,84
3106,41;0,88
3104,48;0,91
3102,55;0,95
3100,62;0,98
3098,69;1,01
3096,76;1,05
3094,83;1,08
3092,90;1,11
3090,97;1,15
3089,04;1,18
3087,11;1,21
3085,18;1,24
3083,25;1,27
3081,32;1,31
3079,39;1,34
3077,46;1,37
3075,53;1,40
3073,60;1,43
3071,67;1,45
3069,74;1,48
3067,81;1,50
3065,88;1,53
3063,95;1,55
3062,02;1,58
3060,09;1,60
3058,16;1,63
3056,23;1,65
3054,30;1,67
3052,37;1,69
3050,44;1,71
3048,51;1,73
3046,58;1,74
3044,65;1,75
3042,72;1,76
3040,79;1,77
3038,86;1,77
3036,93;1,76
3035,00;1,75
3033,07;1,74
3031,14;1,72
3029,21;1,69
3027,28;1,66
3025,35;1,63
3023,42;1,59
3021,49;1,55
3019,56;1,50
3017,63;1,44
3015,70;1,38
3013,77;1,30
3011,84;1,22
3009,91;1,14
3007,98;1,04
3006,05;0,94
3004,12;0,84
3002,19;0,73
3000,26;0,62
2998,33;0,52
2996,40;0,43
2994,47;0,34
2992,54;0,27
2990,61;0,20
2988,68;0,15
2986,75;0,11
2984,82;0,07
2982,89;0,05
2980,96;0,03
2979,03;0,01
2977,10;0,01
2975,17;0,01
2973,24;0,00
2971,31;0,01
2969,38;0,01
2967,45;0,00
2965,52;0,00
2963,59;0,00
2961,66;0,00
2959,73;0,00
2957,80;0,00
2955,87;0,00
2953,94;0,00
2952,01;0,00
2950,08;0,00
2948,15;0,00
2946,22;0,00
2944,29;0,00
2942,36;0,00
2940,43;0,00
2938,50;0,00
2936,57;0,00
2934,64;0,00
2932,71;0,00
2930,78;0,00
2928,85;0,00
2926,92;0,00
2924,99;0,00
2923,06;0,00
2921,13;0,00
2919,20;0,00
2917,27;0,00
2915,34;0,00
2913,41;0,00
2911,48;0,00
2909,55;0,00
2907,62;0,00
2905,69;0,00
2903,76;0,00
2901,83;0,00
2899,90;0,00
2897,97;0,00
2896,04;0,00
2894,11;0,00
2892,18;0,00
2890,25;0,00
2888,32;0,00
2886,39;0,00
2884,46;0,00
2882,53;0,00
2880,60;0,00
2878,67;0,00
2876,74;0,00
2874,81;0,00
2872,88;0,00
2870,95;0,00
2869,02;0,00
2867,09;0,00
2865,16;0,00
2863,23;0,00
2861,30;0,00
2859,37;0,00
2857,44;0,00
2855,51;0,00
2853,58;0,00
2851,65;0,01
2849,72;0,01
2847,79;0,01
2845,86;0,01
2843,93;0,01
2842,00;0,00
2840,07;0,00
2838,14;0,01
2836,21;0,02
2834,28;0,04
2832,35;0,08
2830,42;0,14
2828,49;0,22
2826,56;0,33
2824,63;0,44
2822,70;0,57
2820,77;0,72
2818,84;0,87
2816,91;1,03
2814,98;1,20
2813,05;1,39
2811,12;1,58
2809,19;1,77
2807,26;1,98
2805,33;2,20
2803,40;2,41
2801,47;2,63
2799,54;2,85
2797,61;3,07
2795,68;3,29
2793,75;3,51
2791,82;3,73
2789,89;3,96
2787,96;4,19
2786,03;4,43
2784,10;4,66
2782,17;4,90
2780,24;5,14
2778,31;5,36
2776,38;5,58
2774,45;5,78
2772,52;5,96
2770,59;6,13
2768,66;6,28
2766,73;6,42
2764,80;6,53
2762,87;6,62
2760,94;6,70
2759,01;6,77
2757,08;6,84
2755,15;6,89
2753,22;6,94
2751,29;6,98
2749,36;6,99
2747,43;6,99
2745,50;6,98
2743,57;6,94
2741,64;6,88
2739,71;6,80
2737,78;6,69
2735,85;6,56
2733,92;6,42
2731,99;6,28
2730,06;6,20
2728,13;6,19
2726,20;6,23
2724,27;6,31
2722,34;6,40
2720,41;6,51
2718,48;6,63
2716,55;6,78
2714,62;6,95
2712,69;7,12
2710,76;7,29
2708,83;7,43
2706,90;7,55
2704,97;7,64
2703,04;7,71
2701,11;7,75
2699,18;7,77
2697,25;7,78
2695,32;7,76
2693,39;7,74
2691,46;7,71
2689,53;7,67
2687,60;7,65
2685,67;7,64
2683,74;7,64
2681,81;7,64
2679,88;7,66
2677,95;7,67
2676,02;7,68
2674,09;7,70
2672,16;7,72
2670,23;7,76
2668,30;7,81
2666,37;7,89
2664,44;7,99
2662,51;8,09
2660,58;8,20
2658,65;8,31
2656,72;8,42
2654,79;8,51
2652,86;8,61
2650,93;8,69
2649,00;8,77
2647,07;8,84
2645,14;8,91
2643,21;8,98
2641,28;9,04
2639,35;9,10
2637,42;9,16
2635,49;9,22
2633,56;9,27
2631,63;9,32
2629,70;9,38
2627,77;9,42
2625,84;9,47
2623,91;9,52
2621,98;9,57
2620,05;9,62
2618,12;9,67
2616,19;9,72
2614,26;9,78
2612,33;9,83
2610,40;9,89
2608,47;9,95
2606,54;10,02
2604,61;10,09
2602,68;10,16
2600,75;10,24
2598,82;10,32
2596,89;10,41
2594,96;10,50
2593,03;10,59
2591,10;10,69
2589,17;10,80
2587,24;10,90
2585,31;11,01
2583,38;11,12
2581,45;11,24
2579,52;11,36
2577,59;11,47
2575,66;11,59
2573,73;11,71
2571,80;11,82
2569,87;11,94
2567,94;12,04
2566,01;12,15
2564,08;12,25
2562,15;12,34
2560,22;12,43
2558,29;12,51
2556,36;12,59
2554,43;12,66
2552,50;12,73
2550,57;12,79
2548,64;12,86
2546,71;12,91
2544,78;12,97
2542,85;13,02
2540,92;13,08
2538,99;13,13
2537,06;13,17
2535,13;13,22
2533,20;13,26
2531,27;13,31
2529,34;13,37
2527,41;13,43
2525,48;13,50
2523,55;13,56
2521,62;13,63
2519,69;13,69
2517,76;13,75
2515,83;13,81
2513,90;13,87
2511,97;13,93
2510,04;13,99
2508,11;14,04
2506,18;14,09
2504,25;14,14
2502,32;14,18
2500,39;14,22
2498,46;14,27
2496,53;14,31
2494,60;14,35
2492,67;14,38
2490,74;14,42
2488,81;14,45
2486,88;14,48
2484,95;14,51
2483,02;14,53
2481,09;14,56
2479,16;14,58
2477,23;14,60
2475,30;14,62
2473,37;14,64
2471,44;14,66
2469,51;14,68
2467,58;14,69
2465,65;14,71
2463,72;14,72
2461,79;14,73
2459,86;14,74
2457,93;14,75
2456,00;14,76
2454,07;14,77
2452,14;14,77
2450,21;14,78
2448,28;14,78
2446,35;14,78
2444,42;14,78
2442,49;14,78
2440,56;14,78
2438,63;14,77
2436,70;14,77
2434,77;14,76
2432,84;14,76
2430,91;14,75
2428,98;14,75
2427,05;14,74
2425,12;14,73
2423,19;14,72
2421,26;14,71
2419,33;14,71
2417,40;14,70
2415,47;14,69
2413,54;14,68
2411,61;14,68
2409,68;14,67
2407,75;14,67
2405,82;14,67
2403,89;14,67
2401,96;14,68
2400,03;14,68
2398,10;14,69
2396,17;14,70
2394,24;14,71
2392,31;14,72
2390,38;14,73
2388,45;14,73
2386,52;14,74
2384,59;14,74
2382,66;14,74
2380,73;14,73
2378,80;14,73
2376,87;14,72
2374,94;14,71
2373,01;14,71
2371,08;14,71
2369,15;14,71
2367,22;14,71
2365,29;14,70
2363,36;14,70
2361,43;14,69
2359,50;14,68
2357,57;14,68
2355,64;14,67
2353,71;14,67
2351,78;14,66
2349,85;14,65
2347,92;14,66
2345,99;14,66
2344,06;14,63
2342,13;14,62
2340,20;14,61
2338,27;14,58
2336,34;14,54
2334,41;14,55
2332,48;14,59
2330,55;14,64
2328,62;14,67
2326,69;14,69
2324,76;14,71
2322,83;14,71
2320,90;14,72
2318,97;14,74
2317,04;14,76
2315,11;14,77
2313,18;14,78
2311,25;14,79
2309,32;14,81
2307,39;14,83
2305,46;14,85
2303,53;14,87
2301,60;14,89
2299,67;14,90
2297,74;14,92
2295,81;14,93
2293,88;14,94
2291,95;14,96
2290,02;14,97
2288,09;14,98
2286,16;14,99
2284,23;15,01
2282,30;15,02
2280,37;15,03
2278,44;15,05
2276,51;15,07
2274,58;15,08
2272,65;15,09
2270,72;15,10
2268,79;15,11
2266,86;15,12
2264,93;15,13
2263,00;15,14
2261,07;15,15
2259,14;15,16
2257,21;15,17
2255,28;15,18
2253,35;15,19
2251,42;15,19
2249,49;15,20
2247,56;15,21
2245,63;15,21
2243,70;15,21
2241,77;15,22
2239,84;15,22
2237,91;15,22
2235,98;15,22
2234,05;15,22
2232,12;15,21
2230,19;15,21
2228,26;15,20
2226,33;15,20
2224,40;15,19
2222,47;15,19
2220,54;15,18
2218,61;15,18
2216,68;15,17
2214,75;15,17
2212,82;15,16
2210,89;15,15
2208,96;15,14
2207,03;15,14
2205,10;15,13
2203,17;15,12
2201,24;15,12
2199,31;15,11
2197,38;15,10
2195,45;15,09
2193,52;15,09
2191,59;15,08
2189,66;15,07
2187,73;15,06
2185,80;15,05
2183,87;15,05
2181,94;15,05
2180,01;15,05
2178,08;15,04
2176,15;15,05
2174,22;15,07
2172,29;15,08
2170,36;15,08
2168,43;15,09
2166,50;15,10
2164,57;15,10
2162,64;15,11
2160,71;15,12
2158,78;15,13
2156,85;15,14
2154,92;15,15
2152,99;15,17
2151,06;15,19
2149,13;15,22
2147,20;15,25
2145,27;15,29
2143,34;15,34
2141,41;15,38
2139,48;15,42
2137,55;15,46
2135,62;15,49
2133,69;15,53
2131,76;15,56
2129,83;15,59
2127,90;15,62
2125,97;15,65
2124,04;15,67
2122,11;15,71
2120,18;15,74
2118,25;15,77
2116,32;15,80
2114,39;15,83
2112,46;15,86
2110,53;15,89
2108,60;15,93
2106,67;15,96
2104,74;16,00
2102,81;16,03
2100,88;16,07
2098,95;16,10
2097,02;16,14
2095,09;16,18
2093,16;16,22
2091,23;16,26
2089,30;16,30
2087,37;16,33
2085,44;16,37
2083,51;16,41
2081,58;16,45
2079,65;16,49
2077,72;16,53
2075,79;16,57
2073,86;16,61
2071,93;16,65
2070,00;16,69
2068,07;16,73
2066,14;16,77
2064,21;16,81
2062,28;16,84
2060,35;16,88
2058,42;16,91
2056,49;16,95
2054,56;16,98
2052,63;17,02
2050,70;17,05
2048,77;17,08
2046,84;17,11
2044,91;17,15
2042,98;17,19
2041,05;17,22
2039,12;17,25
2037,19;17,29
2035,26;17,34
2033,33;17,38
2031,40;17,43
2029,47;17,49
2027,54;17,55
2025,61;17,62
2023,68;17,69
2021,75;17,78
2019,82;17,89
2017,89;18,00
2015,96;18,11
2014,03;18,22
2012,10;18,33
2010,17;18,43
2008,24;18,53
2006,31;18,61
2004,38;18,69
2002,45;18,77
2000,52;18,84
1998,59;18,91
1996,66;18,98
1994,73;19,05
1992,80;19,12
1990,87;19,18
1988,94;19,23
1987,01;19,27
1985,08;19,32
1983,15;19,37
1981,22;19,42
1979,29;19,47
1977,36;19,52
1975,43;19,56
1973,50;19,61
1971,57;19,65
1969,64;19,71
1967,71;19,76
1965,78;19,79
1963,85;19,82
1961,92;19,86
1959,99;19,89
1958,06;19,92
1956,13;19,96
1954,20;19,99
1952,27;20,02
1950,34;20,06
1948,41;20,09
1946,48;20,13
1944,55;20,18
1942,62;20,20
1940,69;20,20
1938,76;20,21
1936,83;20,24
1934,90;20,28
1932,97;20,32
1931,04;20,36
1929,11;20,40
1927,18;20,43
1925,25;20,49
1923,32;20,53
1921,39;20,54
1919,46;20,57
1917,53;20,59
1915,60;20,61
1913,67;20,63
1911,74;20,65
1909,81;20,69
1907,88;20,70
1905,95;20,72
1904,02;20,74
1902,09;20,76
1900,16;20,78
1898,23;20,81
1896,30;20,84
1894,37;20,86
1892,44;20,89
1890,51;20,92
1888,58;20,94
1886,65;20,94
1884,72;20,96
1882,79;20,98
1880,86;21,01
1878,93;21,03
1877,00;21,05
1875,07;21,08
1873,14;21,10
1871,21;21,15
1869,28;21,21
1867,35;21,24
1865,42;21,25
1863,49;21,26
1861,56;21,28
1859,63;21,29
1857,70;21,30
1855,77;21,31
1853,84;21,32
1851,91;21,33
1849,98;21,36
1848,05;21,33
1846,12;21,32
1844,19;21,37
1842,26;21,39
1840,33;21,37
1838,40;21,36
1836,47;21,35
1834,54;21,32
1832,61;21,30
1830,68;21,30
1828,75;21,31
1826,82;21,31
1824,89;21,27
1822,96;21,20
1821,03;21,15
1819,10;21,11
1817,17;21,06
1815,24;20,99
1813,31;20,94
1811,38;20,87
1809,45;20,80
1807,52;20,68
1805,59;20,58
1803,66;20,47
1801,73;20,33
1799,80;20,16
1797,87;20,01
1795,94;19,82
1794,01;19,69
1792,08;19,61
1790,15;19,45
1788,22;19,26
1786,29;19,09
1784,36;18,87
1782,43;18,65
1780,50;18,42
1778,57;18,16
1776,64;17,86
1774,71;17,55
1772,78;17,42
1770,85;17,34
1768,92;17,19
1766,99;16,95
1765,06;16,69
1763,13;16,40
1761,20;16,01
1759,27;15,52
1757,34;14,84
1755,41;13,87
1753,48;12,78
1751,55;11,50
1749,62;10,22
1747,69;9,28
1745,76;8,82
1743,83;8,73
1741,90;8,88
1739,97;9,14
1738,04;9,34
1736,11;9,43
1734,18;9,57
1732,25;9,69
1730,32;9,69
1728,39;9,61
1726,46;9,52
1724,53;9,40
1722,60;9,21
1720,67;8,93
1718,74;8,60
1716,81;8,24
1714,88;7,83
1712,95;7,38
1711,02;6,94
1709,09;6,57
1707,16;6,26
1705,23;5,99
1703,30;5,75
1701,37;5,60
1699,44;5,47
1697,51;5,39
1695,58;5,33
1693,65;5,27
1691,72;5,16
1689,79;5,01
1687,86;4,78
1685,93;4,61
1684,00;4,45
1682,07;4,28
1680,14;4,07
1678,21;3,85
1676,28;3,65
1674,35;3,44
1672,42;3,26
1670,49;3,10
1668,56;2,94
1666,63;2,79
1664,70;2,67
1662,77;2,56
1660,84;2,46
1658,91;2,36
1656,98;2,26
1655,05;2,16
1653,12;2,11
1651,19;2,09
1649,26;2,07
1647,33;2,04
1645,40;2,03
1643,47;2,03
1641,54;2,02
1639,61;2,01
1637,68;2,01
1635,75;2,02
1633,82;2,03
1631,89;2,05
1629,96;2,14
1628,03;2,31
1626,10;2,51
1624,17;2,71
1622,24;2,92
1620,31;3,07
1618,38;3,20
1616,45;3,43
1614,52;3,65
1612,59;3,81
1610,66;3,95
1608,73;4,10
1606,80;4,27
1604,87;4,47
1602,94;4,69
1601,01;4,92
1599,08;5,16
1597,15;5,41
1595,22;5,68
1593,29;5,93
1591,36;6,17
1589,43;6,41
1587,50;6,64
1585,57;6,87
1583,64;7,08
1581,71;7,29
1579,78;7,51
1577,85;7,49
1575,92;7,78
1573,99;8,07
1572,06;8,21
1570,13;8,39
1568,20;8,58
1566,27;8,73
1564,34;8,84
1562,41;8,85
1560,48;8,96
1558,55;9,30
1556,62;9,56
1554,69;9,73
1552,76;9,92
1550,83;10,10
1548,90;10,24
1546,97;10,36
1545,04;10,45
1543,11;10,45
1541,18;10,49
1539,25;10,74
1537,32;10,96
1535,39;11,04
1533,46;11,09
1531,53;11,06
1529,60;10,99
1527,67;10,87
1525,74;10,70
1523,81;10,47
1521,88;10,24
1519,95;9,94
1518,02;9,61
1516,09;9,27
1514,16;9,11
1512,23;9,11
1510,30;9,13
1508,37;9,07
1506,44;9,05
1504,51;9,04
1502,58;8,95
1500,65;8,74
1498,72;8,43
1496,79;8,03
1494,86;7,56
1492,93;7,06
1491,00;6,46
1489,07;5,73
1487,14;5,04
1485,21;4,41
1483,28;3,80
1481,35;3,13
1479,42;2,43
1477,49;1,76
1475,56;1,11
1473,63;0,58
1471,70;0,20
1469,77;0,04
1467,84;0,01
1465,91;0,00
1463,98;0,00
1462,05;0,00
1460,12;0,00
1458,19;0,00
1456,26;0,00
1454,33;0,01
1452,40;0,01
1450,47;0,03
1448,54;0,05
1446,61;0,09
1444,68;0,14
1442,75;0,23
1440,82;0,35
1438,89;0,50
1436,96;0,74
1435,03;1,12
1433,10;1,60
1431,17;2,24
1429,24;2,98
1427,31;3,64
1425,38;4,18
1423,45;4,61
1421,52;4,92
1419,59;5,22
1417,66;5,48
1415,73;5,65
1413,80;5,75
1411,87;5,83
1409,94;5,85
1408,01;5,85
1406,08;5,83
1404,15;5,79
1402,22;5,71
1400,29;5,63
1398,36;5,44
1396,43;5,12
1394,50;4,59
1392,57;3,96
1390,64;3,37
1388,71;2,74
1386,78;2,00
1384,85;1,31
1382,92;0,77
1380,99;0,38
1379,06;0,16
1377,13;0,10
1375,20;0,18
1373,27;0,40
1371,34;0,63
1369,41;0,71
1367,48;0,65
1365,55;0,72
1363,62;1,12
1361,69;1,76
1359,76;2,33
1357,83;2,70
1355,90;2,89
1353,97;2,99
1352,04;3,10
1350,11;3,30
1348,18;3,57
1346,25;3,82
1344,32;4,00
1342,39;4,13
1340,46;4,30
1338,53;4,57
1336,60;4,90
1334,67;5,24
1332,74;5,57
1330,81;5,85
1328,88;6,08
1326,95;6,27
1325,02;6,40
1323,09;6,48
1321,16;6,49
1319,23;6,45
1317,30;6,35
1315,37;6,26
1313,44;6,17
1311,51;6,11
1309,58;6,05
1307,65;6,01
1305,72;5,98
1303,79;5,98
1301,86;6,03
1299,93;6,14
1298,00;6,31
1296,07;6,50
1294,14;6,70
1292,21;6,88
1290,28;7,04
1288,35;7,18
1286,42;7,29
1284,49;7,37
1282,56;7,41
1280,63;7,42
1278,70;7,39
1276,77;7,36
1274,84;7,37
1272,91;7,42
1270,98;7,51
1269,05;7,60
1267,12;7,69
1265,19;7,75
1263,26;7,80
1261,33;7,83
1259,40;7,87
1257,47;7,89
1255,54;7,89
1253,61;7,86
1251,68;7,82
1249,75;7,76
1247,82;7,71
1245,89;7,69
1243,96;7,68
1242,03;7,68
1240,10;7,63
1238,17;7,48
1236,24;7,24
1234,31;7,00
1232,38;6,85
1230,45;6,85
1228,52;6,97
1226,59;7,15
1224,66;7,34
1222,73;7,54
1220,80;7,71
1218,87;7,86
1216,94;7,99
1215,01;8,09
1213,08;8,15
1211,15;8,18
1209,22;8,17
1207,29;8,12
1205,36;8,05
1203,43;7,97
1201,50;7,93
1199,57;7,94
1197,64;7,98
1195,71;8,01
1193,78;8,02
1191,85;8,04
1189,92;8,07
1187,99;8,10
1186,06;8,08
1184,13;7,98
1182,20;7,80
1180,27;7,58
1178,34;7,40
1176,41;7,22
1174,48;7,00
1172,55;6,74
1170,62;6,53
1168,69;6,44
1166,76;6,46
1164,83;6,49
1162,90;6,48
1160,97;6,43
1159,04;6,37
1157,11;6,31
1155,18;6,29
1153,25;6,31
1151,32;6,37
1149,39;6,45
1147,46;6,54
1145,53;6,64
1143,60;6,74
1141,67;6,86
1139,74;6,99
1137,81;7,11
1135,88;7,22
1133,95;7,29
1132,02;7,34
1130,09;7,34
1128,16;7,31
1126,23;7,24
1124,30;7,15
1122,37;7,07
1120,44;7,00
1118,51;6,97
1116,58;6,96
1114,65;6,95
1112,72;6,94
1110,79;6,92
1108,86;6,89
1106,93;6,85
1105,00;6,79
1103,07;6,69
1101,14;6,56
1099,21;6,41
1097,28;6,20
1095,35;5,96
1093,42;5,69
1091,49;5,42
1089,56;5,19
1087,63;5,07
1085,70;5,07
1083,77;5,20
1081,84;5,41
1079,91;5,67
1077,98;5,94
1076,05;6,20
1074,12;6,46
1072,19;6,71
1070,26;6,92
1068,33;7,10
1066,40;7,29
1064,47;7,49
1062,54;7,72
1060,61;7,98
1058,68;8,23
1056,75;8,43
1054,82;8,55
1052,89;8,60
1050,96;8,60
1049,03;8,59
1047,10;8,60
1045,17;8,62
1043,24;8,68
1041,31;8,77
1039,38;8,88
1037,45;9,01
1035,52;9,18
1033,59;9,38
1031,66;9,61
1029,73;9,86
1027,80;10,11
1025,87;10,35
1023,94;10,57
1022,01;10,79
1020,08;11,02
1018,15;11,23
1016,22;11,42
1014,29;11,56
1012,36;11,66
1010,43;11,76
1008,50;11,88
1006,57;12,02
1004,64;12,13
1002,71;12,20
1000,78;12,22
998,85;12,24
996,92;12,26
994,99;12,30
993,06;12,33
991,13;12,36
989,20;12,37
987,27;12,35
985,34;12,30
983,41;12,24
981,48;12,15
979,55;12,06
977,62;11,94
975,69;11,83
973,76;11,72
971,83;11,62
969,90;11,53
967,97;11,48
966,04;11,47
964,11;11,54
962,18;11,66
960,25;11,77
958,32;11,85
956,39;11,85
954,46;11,83
952,53;11,80
950,60;11,79
948,67;11,79
946,74;11,77
944,81;11,75
942,88;11,73
940,95;11,72
939,02;11,69
937,09;11,66
935,16;11,63
933,23;11,62
931,30;11,62
929,37;11,63
927,44;11,61
925,51;11,56
923,58;11,47
921,65;11,36
919,72;11,26
917,79;11,26
915,86;11,35
913,93;11,46
912,00;11,49
910,07;11,45
908,14;11,37
906,21;11,26
904,28;11,12
902,35;10,91
900,42;10,62
898,49;10,26
896,56;9,84
894,63;9,40
892,70;8,97
890,77;8,60
888,84;8,34
886,91;8,21
884,98;8,17
883,05;8,18
881,12;8,20
879,19;8,24
877,26;8,28
875,33;8,28
873,40;8,22
871,47;8,12
869,54;7,98
867,61;7,83
865,68;7,67
863,75;7,53
861,82;7,40
859,89;7,29
857,96;7,18
856,03;7,06
854,10;6,93
852,17;6,80
850,24;6,66
848,31;6,52
846,38;6,41
844,45;6,31
842,52;6,22
840,59;6,15
838,66;6,06
836,73;5,94
834,80;5,80
832,87;5,67
830,94;5,56
829,01;5,47
827,08;5,36
825,15;5,25
823,22;5,11
821,29;4,97
819,36;4,84
817,43;4,73
815,50;4,64
813,57;4,57
811,64;4,51
809,71;4,43
807,78;4,35
805,85;4,27
803,92;4,24
801,99;4,23
800,06;4,21
798,13;4,16
796,20;4,08
794,27;3,98
792,34;3,89
790,41;3,79
788,48;3,68
786,55;3,54
784,62;3,38
782,69;3,22
780,76;3,09
778,83;2,99
776,90;2,89
774,97;2,79
773,04;2,69
771,11;2,59
769,18;2,51
767,25;2,45
765,32;2,42
763,39;2,41
761,46;2,40
759,53;2,36
757,60;2,30
755,67;2,23
753,74;2,16
751,81;2,09
749,88;2,03
747,95;1,96
746,02;1,89
744,09;1,80
742,16;1,70
740,23;1,61
738,30;1,55
736,37;1,50
734,44;1,43
732,51;1,34
730,58;1,22
728,65;1,07
726,72;0,92
724,79;0,79
722,86;0,70
720,93;0,72
719,00;0,87
717,07;1,11
715,14;1,35
713,21;1,56
711,28;1,74
709,35;1,89
707,42;2,02
705,49;2,10
703,56;2,16
701,63;2,19
699,70;2,20
697,77;2,24
695,84;2,31
693,91;2,39
691,98;2,45
690,05;2,50
688,12;2,54
686,19;2,58
684,26;2,60
682,33;2,61
680,40;2,63
678,47;2,63
676,54;2,62
674,61;2,62
672,68;2,63
670,75;2,63
668,82;2,63
666,89;2,63
664,96;2,64
663,03;2,65
661,10;2,65
659,17;2,66
657,24;2,68
655,31;2,70
653,38;2,72
651,45;2,75
649,52;2,78
647,59;2,81
645,66;2,84
643,73;2,87
641,80;2,89
639,87;2,92
637,94;2,94
636,01;2,97
634,08;3,00
632,15;3,02
630,22;3,04
628,29;3,05
626,36;3,08
624,43;3,11
622,50;3,14
620,57;3,16
618,64;3,18
616,71;3,20
614,78;3,23
612,85;3,25
610,92;3,28
608,99;3,30
607,06;3,31
605,13;3,33
603,20;3,35
601,27;3,39
599,34;3,43
597,41;3,48
595,48;3,54
593,55;3,60
591,62;3,64
589,69;3,69
587,76;3,74
585,83;3,79
583,90;3,83
581,97;3,88
580,04;3,93
578,11;3,98
576,18;4,03
574,25;4,08
572,32;4,12
570,39;4,17
568,46;4,21
566,53;4,25
564,60;4,29
562,67;4,35
560,74;4,41
558,81;4,48
556,88;4,54
554,95;4,60
553,02;4,66
551,09;4,72
549,16;4,79
547,23;4,87
545,30;4,94
543,37;5,01
541,44;5,07
539,51;5,14
537,58;5,21
535,65;5,28
533,72;5,35
531,79;5,42
529,86;5,49
527,93;5,58
526,00;5,67
524,07;5,75
522,14;5,84
520,21;5,95
518,28;6,06
516,35;6,15
514,42;6,25
512,49;6,36
510,56;6,47
508,63;6,59
506,70;6,71
504,77;6,83
502,84;6,95
500,91;7,06
