Created as New Dataset;Amostra 408 por Laboratório data terça-feira, setembro 24 2024
cm-1;%T
4000,00;63,17
3998,07;63,28
3996,14;63,40
3994,21;63,54
3992,28;63,69
3990,35;63,84
3988,42;64,01
3986,49;64,18
3984,56;64,35
3982,63;64,52
3980,70;64,68
3978,77;64,83
3976,84;64,96
3974,91;65,09
3972,98;65,21
3971,05;65,30
3969,12;65,39
3967,19;65,47
3965,26;65,55
3963,33;65,61
3961,40;65,67
3959,47;65,73
3957,54;65,78
3955,61;65,83
3953,68;65,87
3951,75;65,91
3949,82;65,95
3947,89;65,98
3945,96;66,01
3944,03;66,03
3942,10;66,06
3940,17;66,07
3938,24;66,09
3936,31;66,10
3934,38;66,11
3932,45;66,12
3930,52;66,13
3928,59;66,14
3926,66;66,14
3924,73;66,15
3922,80;66,16
3920,87;66,17
3918,94;66,18
3917,01;66,19
3915,08;66,20
3913,15;66,20
3911,22;66,21
3909,29;66,21
3907,36;66,23
3905,43;66,25
3903,50;66,30
3901,57;66,34
3899,64;66,36
3897,71;66,38
3895,78;66,40
3893,85;66,41
3891,92;66,42
3889,99;66,45
3888,06;66,48
3886,13;66,50
3884,20;66,53
3882,27;66,56
3880,34;66,58
3878,41;66,61
3876,48;66,63
3874,55;66,66
3872,62;66,71
3870,69;66,74
3868,76;66,79
3866,83;66,83
3864,90;66,87
3862,97;66,91
3861,04;66,93
3859,11;66,95
3857,18;66,98
3855,25;67,00
3853,32;67,04
3851,39;67,08
3849,46;67,08
3847,53;67,10
3845,60;67,10
3843,67;67,11
3841,74;67,13
3839,81;67,16
3837,88;67,19
3835,95;67,21
3834,02;67,24
3832,09;67,26
3830,16;67,27
3828,23;67,27
3826,30;67,28
3824,37;67,31
3822,44;67,33
3820,51;67,39
3818,58;67,45
3816,65;67,51
3814,72;67,56
3812,79;67,61
3810,86;67,67
3808,93;67,73
3807,00;67,80
3805,07;67,88
3803,14;67,95
3801,21;68,03
3799,28;68,09
3797,35;68,14
3795,42;68,18
3793,49;68,21
3791,56;68,24
3789,63;68,27
3787,70;68,31
3785,77;68,36
3783,84;68,42
3781,91;68,49
3779,98;68,57
3778,05;68,65
3776,12;68,72
3774,19;68,79
3772,26;68,86
3770,33;68,92
3768,40;68,98
3766,47;69,04
3764,54;69,08
3762,61;69,13
3760,68;69,18
3758,75;69,23
3756,82;69,29
3754,89;69,35
3752,96;69,42
3751,03;69,49
3749,10;69,55
3747,17;69,61
3745,24;69,64
3743,31;69,67
3741,38;69,68
3739,45;69,71
3737,52;69,75
3735,59;69,79
3733,66;69,82
3731,73;69,85
3729,80;69,87
3727,87;69,89
3725,94;69,91
3724,01;69,94
3722,08;69,98
3720,15;70,01
3718,22;70,04
3716,29;70,07
3714,36;70,10
3712,43;70,13
3710,50;70,15
3708,57;70,16
3706,64;70,16
3704,71;70,16
3702,78;70,15
3700,85;70,13
3698,92;70,12
3696,99;70,11
3695,06;70,11
3693,13;70,11
3691,20;70,12
3689,27;70,12
3687,34;70,12
3685,41;70,12
3683,48;70,10
3681,55;70,08
3679,62;70,07
3677,69;70,07
3675,76;70,05
3673,83;70,04
3671,90;70,01
3669,97;69,93
3668,04;69,83
3666,11;69,70
3664,18;69,57
3662,25;69,41
3660,32;69,22
3658,39;69,00
3656,46;68,72
3654,53;68,41
3652,60;68,13
3650,67;67,89
3648,74;67,76
3646,81;67,71
3644,88;67,71
3642,95;67,75
3641,02;67,78
3639,09;67,79
3637,16;67,76
3635,23;67,71
3633,30;67,64
3631,37;67,56
3629,44;67,45
3627,51;67,33
3625,58;67,20
3623,65;67,08
3621,72;66,96
3619,79;66,82
3617,86;66,71
3615,93;66,61
3614,00;66,50
3612,07;66,40
3610,14;66,31
3608,21;66,22
3606,28;66,16
3604,35;66,13
3602,42;66,15
3600,49;66,20
3598,56;66,28
3596,63;66,36
3594,70;66,42
3592,77;66,44
3590,84;66,45
3588,91;66,41
3586,98;66,35
3585,05;66,27
3583,12;66,18
3581,19;66,08
3579,26;65,96
3577,33;65,84
3575,40;65,72
3573,47;65,59
3571,54;65,47
3569,61;65,36
3567,68;65,25
3565,75;65,13
3563,82;65,00
3561,89;64,87
3559,96;64,73
3558,03;64,59
3556,10;64,45
3554,17;64,30
3552,24;64,16
3550,31;64,02
3548,38;63,87
3546,45;63,71
3544,52;63,55
3542,59;63,40
3540,66;63,25
3538,73;63,09
3536,80;62,92
3534,87;62,76
3532,94;62,61
3531,01;62,46
3529,08;62,31
3527,15;62,15
3525,22;61,98
3523,29;61,82
3521,36;61,67
3519,43;61,51
3517,50;61,35
3515,57;61,19
3513,64;61,03
3511,71;60,88
3509,78;60,74
3507,85;60,59
3505,92;60,44
3503,99;60,28
3502,06;60,13
3500,13;59,98
3498,20;59,84
3496,27;59,69
3494,34;59,55
3492,41;59,41
3490,48;59,26
3488,55;59,12
3486,62;58,98
3484,69;58,85
3482,76;58,71
3480,83;58,58
3478,90;58,46
3476,97;58,34
3475,04;58,22
3473,11;58,10
3471,18;57,98
3469,25;57,87
3467,32;57,77
3465,39;57,68
3463,46;57,59
3461,53;57,51
3459,60;57,42
3457,67;57,34
3455,74;57,27
3453,81;57,19
3451,88;57,12
3449,95;57,06
3448,02;56,99
3446,09;56,92
3444,16;56,86
3442,23;56,80
3440,30;56,74
3438,37;56,68
3436,44;56,64
3434,51;56,62
3432,58;56,60
3430,65;56,59
3428,72;56,58
3426,79;56,58
3424,86;56,57
3422,93;56,56
3421,00;56,55
3419,07;56,54
3417,14;56,52
3415,21;56,50
3413,28;56,49
3411,35;56,47
3409,42;56,46
3407,49;56,44
3405,56;56,42
3403,63;56,41
3401,70;56,39
3399,77;56,38
3397,84;56,37
3395,91;56,36
3393,98;56,35
3392,05;56,34
3390,12;56,33
3388,19;56,33
3386,26;56,33
3384,33;56,33
3382,40;56,34
3380,47;56,34
3378,54;56,35
3376,61;56,36
3374,68;56,38
3372,75;56,39
3370,82;56,41
3368,89;56,43
3366,96;56,47
3365,03;56,51
3363,10;56,55
3361,17;56,58
3359,24;56,62
3357,31;56,67
3355,38;56,71
3353,45;56,76
3351,52;56,80
3349,59;56,84
3347,66;56,90
3345,73;56,96
3343,80;57,01
3341,87;57,07
3339,94;57,13
3338,01;57,20
3336,08;57,28
3334,15;57,36
3332,22;57,44
3330,29;57,52
3328,36;57,60
3326,43;57,68
3324,50;57,76
3322,57;57,85
3320,64;57,93
3318,71;58,01
3316,78;58,09
3314,85;58,17
3312,92;58,24
3310,99;58,30
3309,06;58,36
3307,13;58,42
3305,20;58,48
3303,27;58,55
3301,34;58,61
3299,41;58,67
3297,48;58,71
3295,55;58,76
3293,62;58,80
3291,69;58,85
3289,76;58,90
3287,83;58,94
3285,90;58,98
3283,97;59,01
3282,04;59,04
3280,11;59,07
3278,18;59,09
3276,25;59,11
3274,32;59,13
3272,39;59,14
3270,46;59,15
3268,53;59,17
3266,60;59,18
3264,67;59,19
3262,74;59,19
3260,81;59,19
3258,88;59,18
3256,95;59,16
3255,02;59,14
3253,09;59,12
3251,16;59,10
3249,23;59,06
3247,30;59,02
3245,37;58,97
3243,44;58,92
3241,51;58,86
3239,58;58,78
3237,65;58,70
3235,72;58,60
3233,79;58,49
3231,86;58,38
3229,93;58,25
3228,00;58,11
3226,07;57,96
3224,14;57,79
3222,21;57,61
3220,28;57,41
3218,35;57,20
3216,42;56,98
3214,49;56,75
3212,56;56,51
3210,63;56,25
3208,70;56,00
3206,77;55,73
3204,84;55,47
3202,91;55,21
3200,98;54,96
3199,05;54,72
3197,12;54,48
3195,19;54,26
3193,26;54,05
3191,33;53,87
3189,40;53,70
3187,47;53,55
3185,54;53,42
3183,61;53,31
3181,68;53,22
3179,75;53,14
3177,82;53,09
3175,89;53,05
3173,96;53,02
3172,03;53,01
3170,10;53,02
3168,17;53,03
3166,24;53,06
3164,31;53,10
3162,38;53,15
3160,45;53,20
3158,52;53,26
3156,59;53,31
3154,66;53,37
3152,73;53,43
3150,80;53,50
3148,87;53,57
3146,94;53,64
3145,01;53,69
3143,08;53,75
3141,15;53,79
3139,22;53,83
3137,29;53,87
3135,36;53,90
3133,43;53,91
3131,50;53,92
3129,57;53,92
3127,64;53,90
3125,71;53,88
3123,78;53,84
3121,85;53,78
3119,92;53,72
3117,99;53,64
3116,06;53,56
3114,13;53,46
3112,20;53,33
3110,27;53,18
3108,34;53,01
3106,41;52,83
3104,48;52,63
3102,55;52,43
3100,62;52,22
3098,69;51,99
3096,76;51,73
3094,83;51,44
3092,90;51,12
3090,97;50,74
3089,04;50,33
3087,11;49,87
3085,18;49,37
3083,25;48,84
3081,32;48,27
3079,39;47,65
3077,46;46,99
3075,53;46,32
3073,60;45,65
3071,67;44,98
3069,74;44,30
3067,81;43,63
3065,88;42,95
3063,95;42,29
3062,02;41,67
3060,09;41,09
3058,16;40,51
3056,23;39,92
3054,30;39,30
3052,37;38,64
3050,44;37,94
3048,51;37,20
3046,58;36,43
3044,65;35,64
3042,72;34,84
3040,79;34,02
3038,86;33,18
3036,93;32,29
3035,00;31,35
3033,07;30,34
3031,14;29,25
3029,21;28,10
3027,28;26,89
3025,35;25,64
3023,42;24,34
3021,49;22,99
3019,56;21,61
3017,63;20,20
3015,70;18,77
3013,77;17,32
3011,84;15,83
3009,91;14,31
3007,98;12,74
3006,05;11,16
3004,12;9,60
3002,19;8,09
3000,26;6,68
2998,33;5,40
2996,40;4,26
2994,47;3,28
2992,54;2,47
2990,61;1,81
2988,68;1,29
2986,75;0,88
2984,82;0,58
2982,89;0,36
2980,96;0,22
2979,03;0,14
2977,10;0,10
2975,17;0,09
2973,24;0,08
2971,31;0,07
2969,38;0,07
2967,45;0,07
2965,52;0,07
2963,59;0,07
2961,66;0,06
2959,73;0,06
2957,80;0,06
2955,87;0,06
2953,94;0,06
2952,01;0,06
2950,08;0,06
2948,15;0,06
2946,22;0,06
2944,29;0,06
2942,36;0,06
2940,43;0,06
2938,50;0,05
2936,57;0,05
2934,64;0,05
2932,71;0,05
2930,78;0,05
2928,85;0,05
2926,92;0,05
2924,99;0,05
2923,06;0,05
2921,13;0,05
2919,20;0,05
2917,27;0,05
2915,34;0,05
2913,41;0,05
2911,48;0,05
2909,55;0,05
2907,62;0,05
2905,69;0,05
2903,76;0,05
2901,83;0,05
2899,90;0,06
2897,97;0,06
2896,04;0,06
2894,11;0,06
2892,18;0,06
2890,25;0,06
2888,32;0,06
2886,39;0,06
2884,46;0,06
2882,53;0,06
2880,60;0,06
2878,67;0,06
2876,74;0,06
2874,81;0,06
2872,88;0,06
2870,95;0,06
2869,02;0,06
2867,09;0,06
2865,16;0,06
2863,23;0,06
2861,30;0,06
2859,37;0,06
2857,44;0,06
2855,51;0,06
2853,58;0,06
2851,65;0,07
2849,72;0,07
2847,79;0,07
2845,86;0,07
2843,93;0,08
2842,00;0,08
2840,07;0,08
2838,14;0,09
2836,21;0,12
2834,28;0,20
2832,35;0,38
2830,42;0,67
2828,49;1,08
2826,56;1,61
2824,63;2,25
2822,70;2,97
2820,77;3,77
2818,84;4,65
2816,91;5,58
2814,98;6,58
2813,05;7,64
2811,12;8,75
2809,19;9,92
2807,26;11,14
2805,33;12,39
2803,40;13,66
2801,47;14,93
2799,54;16,19
2797,61;17,45
2795,68;18,69
2793,75;19,94
2791,82;21,19
2789,89;22,46
2787,96;23,75
2786,03;25,06
2784,10;26,38
2782,17;27,70
2780,24;28,98
2778,31;30,22
2776,38;31,39
2774,45;32,47
2772,52;33,45
2770,59;34,33
2768,66;35,10
2766,73;35,77
2764,80;36,31
2762,87;36,74
2760,94;37,07
2759,01;37,35
2757,08;37,61
2755,15;37,84
2753,22;38,01
2751,29;38,10
2749,36;38,10
2747,43;38,00
2745,50;37,79
2743,57;37,46
2741,64;37,01
2739,71;36,42
2737,78;35,68
2735,85;34,82
2733,92;33,88
2731,99;32,99
2730,06;32,33
2728,13;32,02
2726,20;32,02
2724,27;32,23
2722,34;32,58
2720,41;33,07
2718,48;33,71
2716,55;34,49
2714,62;35,39
2712,69;36,33
2710,76;37,19
2708,83;37,91
2706,90;38,46
2704,97;38,86
2703,04;39,11
2701,11;39,24
2699,18;39,25
2697,25;39,17
2695,32;39,01
2693,39;38,78
2691,46;38,53
2689,53;38,27
2687,60;38,06
2685,67;37,90
2683,74;37,80
2681,81;37,75
2679,88;37,72
2677,95;37,70
2676,02;37,68
2674,09;37,68
2672,16;37,71
2670,23;37,82
2668,30;38,05
2666,37;38,39
2664,44;38,81
2662,51;39,28
2660,58;39,78
2658,65;40,29
2656,72;40,78
2654,79;41,23
2652,86;41,64
2650,93;42,00
2649,00;42,34
2647,07;42,65
2645,14;42,93
2643,21;43,20
2641,28;43,46
2639,35;43,70
2637,42;43,92
2635,49;44,12
2633,56;44,31
2631,63;44,49
2629,70;44,67
2627,77;44,84
2625,84;45,03
2623,91;45,21
2621,98;45,40
2620,05;45,59
2618,12;45,79
2616,19;46,00
2614,26;46,22
2612,33;46,46
2610,40;46,71
2608,47;46,97
2606,54;47,24
2604,61;47,53
2602,68;47,84
2600,75;48,17
2598,82;48,53
2596,89;48,92
2594,96;49,32
2593,03;49,75
2591,10;50,20
2589,17;50,66
2587,24;51,15
2585,31;51,66
2583,38;52,18
2581,45;52,71
2579,52;53,25
2577,59;53,80
2575,66;54,35
2573,73;54,89
2571,80;55,42
2569,87;55,94
2567,94;56,44
2566,01;56,92
2564,08;57,38
2562,15;57,81
2560,22;58,21
2558,29;58,59
2556,36;58,95
2554,43;59,29
2552,50;59,61
2550,57;59,91
2548,64;60,19
2546,71;60,46
2544,78;60,72
2542,85;60,97
2540,92;61,21
2538,99;61,44
2537,06;61,65
2535,13;61,86
2533,20;62,08
2531,27;62,32
2529,34;62,57
2527,41;62,85
2525,48;63,14
2523,55;63,44
2521,62;63,73
2519,69;64,02
2517,76;64,30
2515,83;64,58
2513,90;64,85
2511,97;65,11
2510,04;65,35
2508,11;65,59
2506,18;65,81
2504,25;66,02
2502,32;66,21
2500,39;66,40
2498,46;66,58
2496,53;66,75
2494,60;66,91
2492,67;67,05
2490,74;67,19
2488,81;67,31
2486,88;67,42
2484,95;67,52
2483,02;67,61
2481,09;67,70
2479,16;67,78
2477,23;67,86
2475,30;67,93
2473,37;68,01
2471,44;68,07
2469,51;68,13
2467,58;68,18
2465,65;68,23
2463,72;68,27
2461,79;68,31
2459,86;68,34
2457,93;68,37
2456,00;68,38
2454,07;68,40
2452,14;68,40
2450,21;68,41
2448,28;68,41
2446,35;68,41
2444,42;68,40
2442,49;68,39
2440,56;68,36
2438,63;68,33
2436,70;68,30
2434,77;68,26
2432,84;68,22
2430,91;68,17
2428,98;68,12
2427,05;68,08
2425,12;68,03
2423,19;67,99
2421,26;67,94
2419,33;67,89
2417,40;67,84
2415,47;67,79
2413,54;67,75
2411,61;67,72
2409,68;67,69
2407,75;67,67
2405,82;67,66
2403,89;67,65
2401,96;67,66
2400,03;67,68
2398,10;67,72
2396,17;67,76
2394,24;67,82
2392,31;67,86
2390,38;67,91
2388,45;67,94
2386,52;67,96
2384,59;67,96
2382,66;67,95
2380,73;67,92
2378,80;67,88
2376,87;67,84
2374,94;67,83
2373,01;67,84
2371,08;67,87
2369,15;67,89
2367,22;67,90
2365,29;67,91
2363,36;67,92
2361,43;67,92
2359,50;67,93
2357,57;67,94
2355,64;67,95
2353,71;67,98
2351,78;68,02
2349,85;68,01
2347,92;68,00
2345,99;68,02
2344,06;68,03
2342,13;68,05
2340,20;68,07
2338,27;68,10
2336,34;68,11
2334,41;68,13
2332,48;68,14
2330,55;68,16
2328,62;68,20
2326,69;68,23
2324,76;68,25
2322,83;68,27
2320,90;68,30
2318,97;68,36
2317,04;68,44
2315,11;68,51
2313,18;68,59
2311,25;68,68
2309,32;68,79
2307,39;68,90
2305,46;69,00
2303,53;69,11
2301,60;69,21
2299,67;69,30
2297,74;69,39
2295,81;69,49
2293,88;69,58
2291,95;69,67
2290,02;69,76
2288,09;69,84
2286,16;69,93
2284,23;70,01
2282,30;70,11
2280,37;70,23
2278,44;70,36
2276,51;70,48
2274,58;70,60
2272,65;70,69
2270,72;70,78
2268,79;70,87
2266,86;70,95
2264,93;71,03
2263,00;71,11
2261,07;71,19
2259,14;71,27
2257,21;71,35
2255,28;71,43
2253,35;71,50
2251,42;71,57
2249,49;71,64
2247,56;71,70
2245,63;71,76
2243,70;71,82
2241,77;71,87
2239,84;71,92
2237,91;71,96
2235,98;72,00
2234,05;72,04
2232,12;72,07
2230,19;72,10
2228,26;72,12
2226,33;72,15
2224,40;72,17
2222,47;72,19
2220,54;72,21
2218,61;72,23
2216,68;72,25
2214,75;72,26
2212,82;72,26
2210,89;72,26
2208,96;72,26
2207,03;72,25
2205,10;72,25
2203,17;72,25
2201,24;72,24
2199,31;72,23
2197,38;72,22
2195,45;72,20
2193,52;72,18
2191,59;72,16
2189,66;72,14
2187,73;72,13
2185,80;72,13
2183,87;72,14
2181,94;72,15
2180,01;72,14
2178,08;72,14
2176,15;72,23
2174,22;72,33
2172,29;72,36
2170,36;72,40
2168,43;72,44
2166,50;72,49
2164,57;72,54
2162,64;72,58
2160,71;72,63
2158,78;72,67
2156,85;72,73
2154,92;72,78
2152,99;72,85
2151,06;72,93
2149,13;73,03
2147,20;73,17
2145,27;73,33
2143,34;73,50
2141,41;73,67
2139,48;73,83
2137,55;73,96
2135,62;74,08
2133,69;74,18
2131,76;74,26
2129,83;74,33
2127,90;74,40
2125,97;74,46
2124,04;74,52
2122,11;74,57
2120,18;74,61
2118,25;74,65
2116,32;74,68
2114,39;74,72
2112,46;74,75
2110,53;74,78
2108,60;74,81
2106,67;74,84
2104,74;74,86
2102,81;74,89
2100,88;74,91
2098,95;74,94
2097,02;74,95
2095,09;74,97
2093,16;74,99
2091,23;75,00
2089,30;75,01
2087,37;75,01
2085,44;75,02
2083,51;75,02
2081,58;75,03
2079,65;75,02
2077,72;75,02
2075,79;75,01
2073,86;75,00
2071,93;74,98
2070,00;74,97
2068,07;74,95
2066,14;74,93
2064,21;74,88
2062,28;74,84
2060,35;74,79
2058,42;74,74
2056,49;74,69
2054,56;74,63
2052,63;74,56
2050,70;74,49
2048,77;74,41
2046,84;74,34
2044,91;74,27
2042,98;74,19
2041,05;74,11
2039,12;74,04
2037,19;73,98
2035,26;73,95
2033,33;73,94
2031,40;73,94
2029,47;73,96
2027,54;74,01
2025,61;74,08
2023,68;74,19
2021,75;74,35
2019,82;74,55
2017,89;74,78
2015,96;75,01
2014,03;75,25
2012,10;75,48
2010,17;75,69
2008,24;75,86
2006,31;76,01
2004,38;76,13
2002,45;76,24
2000,52;76,32
1998,59;76,40
1996,66;76,48
1994,73;76,57
1992,80;76,63
1990,87;76,67
1988,94;76,69
1987,01;76,70
1985,08;76,71
1983,15;76,73
1981,22;76,76
1979,29;76,77
1977,36;76,79
1975,43;76,80
1973,50;76,81
1971,57;76,83
1969,64;76,87
1967,71;76,88
1965,78;76,86
1963,85;76,83
1961,92;76,82
1959,99;76,80
1958,06;76,79
1956,13;76,77
1954,20;76,75
1952,27;76,72
1950,34;76,72
1948,41;76,72
1946,48;76,74
1944,55;76,71
1942,62;76,61
1940,69;76,49
1938,76;76,38
1936,83;76,35
1934,90;76,36
1932,97;76,37
1931,04;76,36
1929,11;76,34
1927,18;76,35
1925,25;76,39
1923,32;76,39
1921,39;76,33
1919,46;76,19
1917,53;76,11
1915,60;76,04
1913,67;76,00
1911,74;75,99
1909,81;75,95
1907,88;75,87
1905,95;75,80
1904,02;75,75
1902,09;75,73
1900,16;75,73
1898,23;75,75
1896,30;75,75
1894,37;75,72
1892,44;75,70
1890,51;75,66
1888,58;75,64
1886,65;75,62
1884,72;75,60
1882,79;75,59
1880,86;75,59
1878,93;75,61
1877,00;75,63
1875,07;75,68
1873,14;75,79
1871,21;75,90
1869,28;75,99
1867,35;76,01
1865,42;75,98
1863,49;75,97
1861,56;76,00
1859,63;76,03
1857,70;76,06
1855,77;76,07
1853,84;76,10
1851,91;76,14
1849,98;76,22
1848,05;76,33
1846,12;76,33
1844,19;76,28
1842,26;76,29
1840,33;76,24
1838,40;76,22
1836,47;76,19
1834,54;76,21
1832,61;76,23
1830,68;76,24
1828,75;76,26
1826,82;76,19
1824,89;76,12
1822,96;76,06
1821,03;75,99
1819,10;75,93
1817,17;75,90
1815,24;75,87
1813,31;75,88
1811,38;75,83
1809,45;75,76
1807,52;75,65
1805,59;75,59
1803,66;75,54
1801,73;75,48
1799,80;75,36
1797,87;75,30
1795,94;75,25
1794,01;75,12
1792,08;74,92
1790,15;74,73
1788,22;74,47
1786,29;74,18
1784,36;73,88
1782,43;73,52
1780,50;73,06
1778,57;72,61
1776,64;72,37
1774,71;72,24
1772,78;72,07
1770,85;72,00
1768,92;71,98
1766,99;72,05
1765,06;72,17
1763,13;72,20
1761,20;72,25
1759,27;72,20
1757,34;71,99
1755,41;71,80
1753,48;71,57
1751,55;71,13
1749,62;70,45
1747,69;69,52
1745,76;68,46
1743,83;67,31
1741,90;66,21
1739,97;65,37
1738,04;65,10
1736,11;65,00
1734,18;64,98
1732,25;64,89
1730,32;64,68
1728,39;64,47
1726,46;64,23
1724,53;63,80
1722,60;63,04
1720,67;61,95
1718,74;60,08
1716,81;56,87
1714,88;53,40
1712,95;50,48
1711,02;48,26
1709,09;46,75
1707,16;45,98
1705,23;45,94
1703,30;46,44
1701,37;47,24
1699,44;49,14
1697,51;50,66
1695,58;52,12
1693,65;53,66
1691,72;54,99
1689,79;56,40
1687,86;57,82
1685,93;58,79
1684,00;59,58
1682,07;60,21
1680,14;60,61
1678,21;60,94
1676,28;61,21
1674,35;61,72
1672,42;62,11
1670,49;62,33
1668,56;62,56
1666,63;62,78
1664,70;62,90
1662,77;63,06
1660,84;63,20
1658,91;63,36
1656,98;63,72
1655,05;64,01
1653,12;63,96
1651,19;63,88
1649,26;63,85
1647,33;63,79
1645,40;63,61
1643,47;63,46
1641,54;63,44
1639,61;63,66
1637,68;63,90
1635,75;63,86
1633,82;63,87
1631,89;63,85
1629,96;63,85
1628,03;63,90
1626,10;63,94
1624,17;63,81
1622,24;63,61
1620,31;63,42
1618,38;63,12
1616,45;62,36
1614,52;61,54
1612,59;60,79
1610,66;60,02
1608,73;59,21
1606,80;58,63
1604,87;58,44
1602,94;58,56
1601,01;58,88
1599,08;59,40
1597,15;60,04
1595,22;60,59
1593,29;60,91
1591,36;60,98
1589,43;60,94
1587,50;60,87
1585,57;60,79
1583,64;60,63
1581,71;60,41
1579,78;60,27
1577,85;60,12
1575,92;59,55
1573,99;59,03
1572,06;58,63
1570,13;58,19
1568,20;57,71
1566,27;57,26
1564,34;56,89
1562,41;56,73
1560,48;56,33
1558,55;55,54
1556,62;54,74
1554,69;53,96
1552,76;53,17
1550,83;52,40
1548,90;51,60
1546,97;50,88
1545,04;50,26
1543,11;49,63
1541,18;48,84
1539,25;47,52
1537,32;46,42
1535,39;45,53
1533,46;44,56
1531,53;43,53
1529,60;42,64
1527,67;41,65
1525,74;40,60
1523,81;39,54
1521,88;38,20
1519,95;36,53
1518,02;35,09
1516,09;33,64
1514,16;32,61
1512,23;31,95
1510,30;31,52
1508,37;30,86
1506,44;29,38
1504,51;27,84
1502,58;26,72
1500,65;25,63
1498,72;24,50
1496,79;23,04
1494,86;21,28
1492,93;19,53
1491,00;17,57
1489,07;15,39
1487,14;13,42
1485,21;11,66
1483,28;9,90
1481,35;8,01
1479,42;6,08
1477,49;4,29
1475,56;2,65
1473,63;1,36
1471,70;0,48
1469,77;0,14
1467,84;0,06
1465,91;0,06
1463,98;0,04
1462,05;0,06
1460,12;0,04
1458,19;0,07
1456,26;0,05
1454,33;0,07
1452,40;0,06
1450,47;0,10
1448,54;0,12
1446,61;0,20
1444,68;0,30
1442,75;0,51
1440,82;0,81
1438,89;1,26
1436,96;2,05
1435,03;3,33
1433,10;5,02
1431,17;7,36
1429,24;10,18
1427,31;12,87
1425,38;15,19
1423,45;17,28
1421,52;18,95
1419,59;20,49
1417,66;21,90
1415,73;22,97
1413,80;23,80
1411,87;24,50
1409,94;24,98
1408,01;25,30
1406,08;25,45
1404,15;25,48
1402,22;25,32
1400,29;24,98
1398,36;24,23
1396,43;22,88
1394,50;20,57
1392,57;17,65
1390,64;14,53
1388,71;11,09
1386,78;7,38
1384,85;4,38
1382,92;2,39
1380,99;1,14
1379,06;0,44
1377,13;0,25
1375,20;0,44
1373,27;1,11
1371,34;2,00
1369,41;2,49
1367,48;2,45
1365,55;2,93
1363,62;4,90
1361,69;8,02
1359,76;10,85
1357,83;12,76
1355,90;13,87
1353,97;14,51
1352,04;15,11
1350,11;15,95
1348,18;16,98
1346,25;17,97
1344,32;18,73
1342,39;19,31
1340,46;20,07
1338,53;21,31
1336,60;22,84
1334,67;24,44
1332,74;25,97
1330,81;27,33
1328,88;28,44
1326,95;29,29
1325,02;29,89
1323,09;30,22
1321,16;30,24
1319,23;29,97
1317,30;29,52
1315,37;29,03
1313,44;28,54
1311,51;28,05
1309,58;27,63
1307,65;27,32
1305,72;27,15
1303,79;27,19
1301,86;27,47
1299,93;28,03
1298,00;28,82
1296,07;29,74
1294,14;30,65
1292,21;31,51
1290,28;32,30
1288,35;33,00
1286,42;33,60
1284,49;34,07
1282,56;34,43
1280,63;34,66
1278,70;34,80
1276,77;34,91
1274,84;35,04
1272,91;35,25
1270,98;35,56
1269,05;35,94
1267,12;36,34
1265,19;36,66
1263,26;36,90
1261,33;37,13
1259,40;37,40
1257,47;37,63
1255,54;37,74
1253,61;37,68
1251,68;37,50
1249,75;37,26
1247,82;37,01
1245,89;36,77
1243,96;36,53
1242,03;36,16
1240,10;35,50
1238,17;34,38
1236,24;32,92
1234,31;31,53
1232,38;30,68
1230,45;30,55
1228,52;30,97
1226,59;31,66
1224,66;32,42
1222,73;33,17
1220,80;33,86
1218,87;34,46
1216,94;34,98
1215,01;35,42
1213,08;35,80
1211,15;36,12
1209,22;36,40
1207,29;36,66
1205,36;36,94
1203,43;37,22
1201,50;37,44
1199,57;37,60
1197,64;37,68
1195,71;37,67
1193,78;37,61
1191,85;37,54
1189,92;37,48
1187,99;37,41
1186,06;37,29
1184,13;37,00
1182,20;36,51
1180,27;35,99
1178,34;35,55
1176,41;34,97
1174,48;34,06
1172,55;33,01
1170,62;32,22
1168,69;32,03
1166,76;32,34
1164,83;32,70
1162,90;32,79
1160,97;32,60
1159,04;32,30
1157,11;32,09
1155,18;32,07
1153,25;32,29
1151,32;32,74
1149,39;33,41
1147,46;34,22
1145,53;35,16
1143,60;36,19
1141,67;37,24
1139,74;38,28
1137,81;39,20
1135,88;39,96
1133,95;40,58
1132,02;41,05
1130,09;41,36
1128,16;41,52
1126,23;41,60
1124,30;41,62
1122,37;41,66
1120,44;41,86
1118,51;42,22
1116,58;42,57
1114,65;42,77
1112,72;42,86
1110,79;42,93
1108,86;43,03
1106,93;43,10
1105,00;43,04
1103,07;42,84
1101,14;42,49
1099,21;42,01
1097,28;41,45
1095,35;40,87
1093,42;40,37
1091,49;40,05
1089,56;39,96
1087,63;40,03
1085,70;40,12
1083,77;40,15
1081,84;40,09
1079,91;40,03
1077,98;40,06
1076,05;40,23
1074,12;40,60
1072,19;41,09
1070,26;41,52
1068,33;41,84
1066,40;42,00
1064,47;42,03
1062,54;42,06
1060,61;42,20
1058,68;42,50
1056,75;42,87
1054,82;43,20
1052,89;43,44
1050,96;43,58
1049,03;43,60
1047,10;43,47
1045,17;43,18
1043,24;42,74
1041,31;42,13
1039,38;41,37
1037,45;40,47
1035,52;39,48
1033,59;38,52
1031,66;37,79
1029,73;37,47
1027,80;37,58
1025,87;38,02
1023,94;38,65
1022,01;39,32
1020,08;39,94
1018,15;40,37
1016,22;40,52
1014,29;40,40
1012,36;40,08
1010,43;39,63
1008,50;39,07
1006,57;38,39
1004,64;37,59
1002,71;36,71
1000,78;35,89
998,85;35,20
996,92;34,69
994,99;34,29
993,06;33,92
991,13;33,52
989,20;32,98
987,27;32,20
985,34;31,14
983,41;29,83
981,48;28,40
979,55;27,04
977,62;25,94
975,69;25,19
973,76;24,83
971,83;24,82
969,90;25,14
967,97;25,74
966,04;26,61
964,11;27,66
962,18;28,69
960,25;29,49
958,32;29,98
956,39;30,29
954,46;30,67
952,53;31,33
950,60;32,33
948,67;33,50
946,74;34,70
944,81;35,86
942,88;36,97
940,95;37,97
939,02;38,85
937,09;39,65
935,16;40,45
933,23;41,28
931,30;42,10
929,37;42,86
927,44;43,49
925,51;43,95
923,58;44,22
921,65;44,35
919,72;44,54
917,79;45,13
915,86;46,19
913,93;47,29
912,00;48,08
910,07;48,63
908,14;49,16
906,21;49,71
904,28;50,10
902,35;50,17
900,42;49,97
898,49;49,58
896,56;49,09
894,63;48,58
892,70;48,10
890,77;47,76
888,84;47,83
886,91;48,47
884,98;49,38
883,05;50,10
881,12;50,42
879,19;50,41
877,26;50,24
875,33;50,00
873,40;49,75
871,47;49,60
869,54;49,57
867,61;49,60
865,68;49,68
863,75;49,77
861,82;49,87
859,89;49,93
857,96;49,94
856,03;49,96
854,10;50,13
852,17;50,51
850,24;51,06
848,31;51,74
846,38;52,49
844,45;53,23
842,52;54,04
840,59;54,87
838,66;55,53
836,73;55,95
834,80;56,15
832,87;56,14
830,94;55,91
829,01;55,51
827,08;54,97
825,15;54,39
823,22;53,78
821,29;53,10
819,36;52,28
817,43;51,40
815,50;50,80
813,57;50,82
811,64;51,48
809,71;52,39
807,78;53,10
805,85;53,59
803,92;54,22
801,99;55,21
800,06;56,31
798,13;57,19
796,20;57,77
794,27;58,12
792,34;58,21
790,41;58,02
788,48;57,54
786,55;56,76
784,62;55,67
782,69;54,43
780,76;53,18
778,83;51,93
776,90;50,62
774,97;49,33
773,04;48,27
771,11;47,57
769,18;47,29
767,25;47,34
765,32;47,61
763,39;47,94
761,46;48,05
759,53;47,75
757,60;46,99
755,67;45,88
753,74;44,62
751,81;43,38
749,88;42,35
747,95;41,46
746,02;40,43
744,09;39,01
742,16;37,18
740,23;35,28
738,30;33,74
736,37;32,56
734,44;31,41
732,51;29,98
730,58;28,07
728,65;25,60
726,72;22,69
724,79;19,64
722,86;17,48
720,93;17,79
719,00;21,55
717,07;27,65
715,14;34,15
713,21;39,98
711,28;45,04
709,35;49,32
707,42;52,76
705,49;55,44
703,56;57,52
701,63;59,05
699,70;60,14
697,77;61,54
695,84;63,56
693,91;65,35
691,98;66,35
690,05;66,81
688,12;67,05
686,19;67,20
684,26;67,27
682,33;67,21
680,40;66,96
678,47;66,50
676,54;65,82
674,61;64,94
672,68;63,97
670,75;63,07
668,82;62,45
666,89;62,36
664,96;62,45
663,03;62,51
661,10;62,52
659,17;62,29
657,24;61,86
655,31;61,52
653,38;61,74
651,45;62,68
649,52;64,13
647,59;65,62
645,66;66,78
643,73;67,37
641,80;67,43
639,87;67,17
637,94;67,00
636,01;67,25
634,08;67,74
632,15;68,00
630,22;67,99
628,29;67,95
626,36;68,20
624,43;68,70
622,50;69,24
620,57;69,68
618,64;70,00
616,71;70,21
614,78;70,32
612,85;70,39
610,92;70,48
608,99;70,55
607,06;70,60
605,13;70,68
603,20;70,76
601,27;70,85
599,34;70,90
597,41;70,88
595,48;70,77
593,55;70,62
591,62;70,36
589,69;70,01
587,76;69,69
585,83;69,54
583,90;69,57
581,97;69,72
580,04;69,83
578,11;69,89
576,18;69,88
574,25;69,77
572,32;69,56
570,39;69,29
568,46;68,98
566,53;68,62
564,60;68,30
562,67;68,05
560,74;67,89
558,81;67,80
556,88;67,76
554,95;67,69
553,02;67,61
551,09;67,55
549,16;67,56
547,23;67,65
545,30;67,84
543,37;68,02
541,44;68,19
539,51;68,33
537,58;68,56
535,65;68,88
533,72;69,27
531,79;69,64
529,86;70,04
527,93;70,45
526,00;70,89
524,07;71,23
522,14;71,58
520,21;71,96
518,28;72,29
516,35;72,50
514,42;72,62
512,49;72,73
510,56;72,83
508,63;72,95
506,70;73,00
504,77;73,00
502,84;72,99
500,91;72,95
