Created as New Dataset;Amostra 419 por Laboratório data terça-feira, setembro 24 2024
cm-1;%T
4000,00;70,74
3998,07;70,80
3996,14;70,86
3994,21;70,93
3992,28;71,00
3990,35;71,08
3988,42;71,16
3986,49;71,24
3984,56;71,33
3982,63;71,44
3980,70;71,55
3978,77;71,66
3976,84;71,79
3974,91;71,94
3972,98;72,09
3971,05;72,25
3969,12;72,42
3967,19;72,59
3965,26;72,75
3963,33;72,89
3961,40;73,02
3959,47;73,11
3957,54;73,19
3955,61;73,24
3953,68;73,28
3951,75;73,33
3949,82;73,37
3947,89;73,43
3945,96;73,48
3944,03;73,54
3942,10;73,59
3940,17;73,64
3938,24;73,70
3936,31;73,76
3934,38;73,82
3932,45;73,89
3930,52;73,95
3928,59;74,01
3926,66;74,07
3924,73;74,12
3922,80;74,17
3920,87;74,22
3918,94;74,26
3917,01;74,28
3915,08;74,29
3913,15;74,27
3911,22;74,24
3909,29;74,21
3907,36;74,17
3905,43;74,14
3903,50;74,09
3901,57;74,03
3899,64;73,89
3897,71;73,73
3895,78;73,56
3893,85;73,38
3891,92;73,18
3889,99;73,00
3888,06;72,85
3886,13;72,70
3884,20;72,57
3882,27;72,53
3880,34;72,54
3878,41;72,63
3876,48;72,80
3874,55;73,05
3872,62;73,37
3870,69;73,75
3868,76;74,13
3866,83;74,47
3864,90;74,75
3862,97;74,99
3861,04;75,17
3859,11;75,29
3857,18;75,40
3855,25;75,50
3853,32;75,59
3851,39;75,66
3849,46;75,68
3847,53;75,68
3845,60;75,67
3843,67;75,69
3841,74;75,73
3839,81;75,81
3837,88;75,88
3835,95;75,94
3834,02;76,00
3832,09;76,02
3830,16;76,02
3828,23;76,01
3826,30;76,00
3824,37;76,00
3822,44;75,98
3820,51;75,93
3818,58;75,90
3816,65;75,82
3814,72;75,70
3812,79;75,61
3810,86;75,56
3808,93;75,56
3807,00;75,57
3805,07;75,63
3803,14;75,70
3801,21;75,75
3799,28;75,81
3797,35;75,89
3795,42;75,97
3793,49;76,10
3791,56;76,27
3789,63;76,48
3787,70;76,74
3785,77;77,02
3783,84;77,30
3781,91;77,57
3779,98;77,80
3778,05;78,00
3776,12;78,17
3774,19;78,31
3772,26;78,44
3770,33;78,57
3768,40;78,70
3766,47;78,82
3764,54;78,91
3762,61;79,01
3760,68;79,11
3758,75;79,22
3756,82;79,33
3754,89;79,46
3752,96;79,59
3751,03;79,73
3749,10;79,87
3747,17;80,00
3745,24;80,08
3743,31;80,11
3741,38;80,13
3739,45;80,16
3737,52;80,20
3735,59;80,24
3733,66;80,28
3731,73;80,29
3729,80;80,28
3727,87;80,27
3725,94;80,26
3724,01;80,25
3722,08;80,25
3720,15;80,24
3718,22;80,22
3716,29;80,20
3714,36;80,18
3712,43;80,15
3710,50;80,10
3708,57;80,03
3706,64;79,93
3704,71;79,79
3702,78;79,60
3700,85;79,37
3698,92;79,12
3696,99;78,88
3695,06;78,70
3693,13;78,62
3691,20;78,63
3689,27;78,72
3687,34;78,83
3685,41;78,91
3683,48;78,95
3681,55;78,97
3679,62;78,98
3677,69;79,00
3675,76;78,99
3673,83;78,99
3671,90;78,96
3669,97;78,85
3668,04;78,72
3666,11;78,58
3664,18;78,43
3662,25;78,29
3660,32;78,17
3658,39;78,06
3656,46;77,94
3654,53;77,85
3652,60;77,78
3650,67;77,70
3648,74;77,63
3646,81;77,57
3644,88;77,52
3642,95;77,47
3641,02;77,44
3639,09;77,44
3637,16;77,47
3635,23;77,53
3633,30;77,60
3631,37;77,69
3629,44;77,79
3627,51;77,88
3625,58;77,95
3623,65;77,98
3621,72;78,01
3619,79;78,03
3617,86;78,07
3615,93;78,11
3614,00;78,12
3612,07;78,11
3610,14;78,08
3608,21;78,02
3606,28;77,94
3604,35;77,83
3602,42;77,69
3600,49;77,52
3598,56;77,32
3596,63;77,08
3594,70;76,79
3592,77;76,47
3590,84;76,11
3588,91;75,70
3586,98;75,21
3585,05;74,69
3583,12;74,13
3581,19;73,53
3579,26;72,89
3577,33;72,25
3575,40;71,61
3573,47;70,98
3571,54;70,39
3569,61;69,83
3567,68;69,25
3565,75;68,70
3563,82;68,22
3561,89;67,79
3559,96;67,39
3558,03;67,05
3556,10;66,77
3554,17;66,54
3552,24;66,36
3550,31;66,23
3548,38;66,13
3546,45;66,07
3544,52;66,02
3542,59;65,97
3540,66;65,93
3538,73;65,91
3536,80;65,90
3534,87;65,90
3532,94;65,92
3531,01;65,94
3529,08;65,98
3527,15;66,03
3525,22;66,09
3523,29;66,15
3521,36;66,20
3519,43;66,25
3517,50;66,31
3515,57;66,37
3513,64;66,42
3511,71;66,45
3509,78;66,46
3507,85;66,45
3505,92;66,41
3503,99;66,31
3502,06;66,13
3500,13;65,86
3498,20;65,50
3496,27;65,02
3494,34;64,41
3492,41;63,67
3490,48;62,79
3488,55;61,76
3486,62;60,61
3484,69;59,34
3482,76;58,01
3480,83;56,64
3478,90;55,29
3476,97;53,99
3475,04;52,81
3473,11;51,80
3471,18;51,03
3469,25;50,51
3467,32;50,26
3465,39;50,29
3463,46;50,62
3461,53;51,24
3459,60;52,12
3457,67;53,21
3455,74;54,48
3453,81;55,89
3451,88;57,37
3449,95;58,90
3448,02;60,42
3446,09;61,91
3444,16;63,32
3442,23;64,62
3440,30;65,82
3438,37;66,90
3436,44;67,86
3434,51;68,68
3432,58;69,38
3430,65;69,98
3428,72;70,47
3426,79;70,87
3424,86;71,21
3422,93;71,48
3421,00;71,70
3419,07;71,86
3417,14;71,98
3415,21;72,06
3413,28;72,10
3411,35;72,08
3409,42;72,00
3407,49;71,85
3405,56;71,64
3403,63;71,39
3401,70;71,11
3399,77;70,80
3397,84;70,48
3395,91;70,21
3393,98;70,01
3392,05;69,87
3390,12;69,77
3388,19;69,72
3386,26;69,71
3384,33;69,74
3382,40;69,79
3380,47;69,85
3378,54;69,91
3376,61;69,97
3374,68;70,04
3372,75;70,14
3370,82;70,25
3368,89;70,39
3366,96;70,54
3365,03;70,71
3363,10;70,91
3361,17;71,14
3359,24;71,37
3357,31;71,59
3355,38;71,81
3353,45;72,01
3351,52;72,19
3349,59;72,34
3347,66;72,45
3345,73;72,54
3343,80;72,60
3341,87;72,64
3339,94;72,66
3338,01;72,65
3336,08;72,62
3334,15;72,57
3332,22;72,51
3330,29;72,45
3328,36;72,38
3326,43;72,30
3324,50;72,21
3322,57;72,12
3320,64;72,03
3318,71;71,95
3316,78;71,88
3314,85;71,83
3312,92;71,80
3310,99;71,81
3309,06;71,84
3307,13;71,89
3305,20;71,97
3303,27;72,06
3301,34;72,16
3299,41;72,25
3297,48;72,35
3295,55;72,43
3293,62;72,48
3291,69;72,51
3289,76;72,50
3287,83;72,45
3285,90;72,37
3283,97;72,26
3282,04;72,13
3280,11;71,96
3278,18;71,78
3276,25;71,58
3274,32;71,36
3272,39;71,13
3270,46;70,88
3268,53;70,62
3266,60;70,36
3264,67;70,09
3262,74;69,81
3260,81;69,52
3258,88;69,23
3256,95;68,93
3255,02;68,63
3253,09;68,32
3251,16;68,01
3249,23;67,69
3247,30;67,38
3245,37;67,06
3243,44;66,74
3241,51;66,41
3239,58;66,09
3237,65;65,77
3235,72;65,44
3233,79;65,13
3231,86;64,81
3229,93;64,50
3228,00;64,19
3226,07;63,88
3224,14;63,57
3222,21;63,28
3220,28;62,99
3218,35;62,72
3216,42;62,46
3214,49;62,22
3212,56;61,99
3210,63;61,78
3208,70;61,58
3206,77;61,40
3204,84;61,22
3202,91;61,06
3200,98;60,91
3199,05;60,77
3197,12;60,64
3195,19;60,52
3193,26;60,42
3191,33;60,32
3189,40;60,24
3187,47;60,18
3185,54;60,14
3183,61;60,13
3181,68;60,14
3179,75;60,18
3177,82;60,25
3175,89;60,35
3173,96;60,49
3172,03;60,65
3170,10;60,83
3168,17;61,04
3166,24;61,27
3164,31;61,50
3162,38;61,75
3160,45;61,99
3158,52;62,24
3156,59;62,48
3154,66;62,71
3152,73;62,92
3150,80;63,13
3148,87;63,33
3146,94;63,51
3145,01;63,67
3143,08;63,81
3141,15;63,94
3139,22;64,05
3137,29;64,16
3135,36;64,25
3133,43;64,32
3131,50;64,38
3129,57;64,43
3127,64;64,47
3125,71;64,50
3123,78;64,51
3121,85;64,51
3119,92;64,48
3117,99;64,45
3116,06;64,41
3114,13;64,35
3112,20;64,26
3110,27;64,16
3108,34;64,04
3106,41;63,92
3104,48;63,77
3102,55;63,61
3100,62;63,44
3098,69;63,25
3096,76;63,06
3094,83;62,85
3092,90;62,62
3090,97;62,38
3089,04;62,12
3087,11;61,85
3085,18;61,54
3083,25;61,22
3081,32;60,87
3079,39;60,49
3077,46;60,08
3075,53;59,63
3073,60;59,16
3071,67;58,64
3069,74;58,09
3067,81;57,51
3065,88;56,91
3063,95;56,28
3062,02;55,63
3060,09;54,97
3058,16;54,29
3056,23;53,60
3054,30;52,90
3052,37;52,17
3050,44;51,42
3048,51;50,61
3046,58;49,74
3044,65;48,80
3042,72;47,78
3040,79;46,68
3038,86;45,48
3036,93;44,19
3035,00;42,81
3033,07;41,34
3031,14;39,77
3029,21;38,10
3027,28;36,33
3025,35;34,45
3023,42;32,44
3021,49;30,29
3019,56;28,00
3017,63;25,57
3015,70;23,00
3013,77;20,33
3011,84;17,61
3009,91;14,88
3007,98;12,21
3006,05;9,68
3004,12;7,38
3002,19;5,37
3000,26;3,73
2998,33;2,46
2996,40;1,54
2994,47;0,93
2992,54;0,54
2990,61;0,32
2988,68;0,19
2986,75;0,12
2984,82;0,08
2982,89;0,06
2980,96;0,05
2979,03;0,04
2977,10;0,04
2975,17;0,04
2973,24;0,04
2971,31;0,04
2969,38;0,04
2967,45;0,04
2965,52;0,04
2963,59;0,04
2961,66;0,04
2959,73;0,04
2957,80;0,04
2955,87;0,04
2953,94;0,04
2952,01;0,04
2950,08;0,04
2948,15;0,04
2946,22;0,04
2944,29;0,04
2942,36;0,04
2940,43;0,04
2938,50;0,04
2936,57;0,04
2934,64;0,04
2932,71;0,04
2930,78;0,04
2928,85;0,04
2926,92;0,04
2924,99;0,04
2923,06;0,04
2921,13;0,04
2919,20;0,04
2917,27;0,04
2915,34;0,04
2913,41;0,04
2911,48;0,04
2909,55;0,04
2907,62;0,04
2905,69;0,04
2903,76;0,04
2901,83;0,04
2899,90;0,04
2897,97;0,04
2896,04;0,04
2894,11;0,03
2892,18;0,03
2890,25;0,04
2888,32;0,04
2886,39;0,04
2884,46;0,04
2882,53;0,04
2880,60;0,04
2878,67;0,04
2876,74;0,04
2874,81;0,04
2872,88;0,04
2870,95;0,04
2869,02;0,04
2867,09;0,04
2865,16;0,04
2863,23;0,04
2861,30;0,04
2859,37;0,04
2857,44;0,04
2855,51;0,05
2853,58;0,06
2851,65;0,07
2849,72;0,10
2847,79;0,14
2845,86;0,23
2843,93;0,37
2842,00;0,61
2840,07;1,00
2838,14;1,56
2836,21;2,27
2834,28;3,09
2832,35;4,02
2830,42;5,09
2828,49;6,38
2826,56;7,91
2824,63;9,60
2822,70;11,37
2820,77;13,09
2818,84;14,67
2816,91;16,10
2814,98;17,40
2813,05;18,66
2811,12;19,97
2809,19;21,36
2807,26;22,86
2805,33;24,48
2803,40;26,26
2801,47;28,17
2799,54;30,17
2797,61;32,14
2795,68;33,98
2793,75;35,62
2791,82;37,04
2789,89;38,26
2787,96;39,32
2786,03;40,27
2784,10;41,24
2782,17;42,32
2780,24;43,51
2778,31;44,71
2776,38;45,79
2774,45;46,70
2772,52;47,41
2770,59;47,95
2768,66;48,31
2766,73;48,49
2764,80;48,51
2762,87;48,34
2760,94;47,97
2759,01;47,34
2757,08;46,41
2755,15;45,18
2753,22;43,75
2751,29;42,33
2749,36;41,29
2747,43;40,92
2745,50;41,29
2743,57;42,17
2741,64;43,15
2739,71;43,95
2737,78;44,44
2735,85;44,66
2733,92;44,70
2731,99;44,66
2730,06;44,62
2728,13;44,56
2726,20;44,43
2724,27;44,16
2722,34;43,79
2720,41;43,50
2718,48;43,48
2716,55;43,75
2714,62;44,20
2712,69;44,82
2710,76;45,71
2708,83;46,90
2706,90;48,23
2704,97;49,45
2703,04;50,36
2701,11;50,96
2699,18;51,36
2697,25;51,68
2695,32;52,01
2693,39;52,40
2691,46;52,85
2689,53;53,33
2687,60;53,80
2685,67;54,23
2683,74;54,59
2681,81;54,91
2679,88;55,17
2677,95;55,42
2676,02;55,68
2674,09;55,97
2672,16;56,31
2670,23;56,71
2668,30;57,16
2666,37;57,66
2664,44;58,16
2662,51;58,64
2660,58;59,08
2658,65;59,48
2656,72;59,83
2654,79;60,12
2652,86;60,36
2650,93;60,55
2649,00;60,72
2647,07;60,86
2645,14;61,01
2643,21;61,17
2641,28;61,38
2639,35;61,63
2637,42;61,93
2635,49;62,26
2633,56;62,62
2631,63;62,98
2629,70;63,34
2627,77;63,67
2625,84;63,98
2623,91;64,25
2621,98;64,49
2620,05;64,69
2618,12;64,85
2616,19;64,99
2614,26;65,15
2612,33;65,33
2610,40;65,57
2608,47;65,84
2606,54;66,11
2604,61;66,36
2602,68;66,57
2600,75;66,75
2598,82;66,90
2596,89;67,06
2594,96;67,24
2593,03;67,45
2591,10;67,69
2589,17;67,93
2587,24;68,16
2585,31;68,38
2583,38;68,58
2581,45;68,77
2579,52;68,93
2577,59;69,06
2575,66;69,17
2573,73;69,26
2571,80;69,34
2569,87;69,43
2567,94;69,54
2566,01;69,70
2564,08;69,89
2562,15;70,11
2560,22;70,33
2558,29;70,53
2556,36;70,70
2554,43;70,85
2552,50;70,97
2550,57;71,08
2548,64;71,19
2546,71;71,31
2544,78;71,43
2542,85;71,56
2540,92;71,69
2538,99;71,83
2537,06;71,96
2535,13;72,10
2533,20;72,24
2531,27;72,39
2529,34;72,53
2527,41;72,66
2525,48;72,78
2523,55;72,87
2521,62;72,96
2519,69;73,01
2517,76;73,06
2515,83;73,09
2513,90;73,11
2511,97;73,11
2510,04;73,11
2508,11;73,10
2506,18;73,07
2504,25;73,04
2502,32;73,01
2500,39;72,98
2498,46;72,96
2496,53;72,94
2494,60;72,94
2492,67;72,94
2490,74;72,95
2488,81;72,95
2486,88;72,94
2484,95;72,93
2483,02;72,90
2481,09;72,87
2479,16;72,83
2477,23;72,78
2475,30;72,74
2473,37;72,68
2471,44;72,61
2469,51;72,51
2467,58;72,39
2465,65;72,27
2463,72;72,14
2461,79;72,05
2459,86;72,00
2457,93;72,04
2456,00;72,13
2454,07;72,29
2452,14;72,44
2450,21;72,59
2448,28;72,70
2446,35;72,79
2444,42;72,84
2442,49;72,88
2440,56;72,89
2438,63;72,89
2436,70;72,86
2434,77;72,81
2432,84;72,75
2430,91;72,65
2428,98;72,51
2427,05;72,34
2425,12;72,13
2423,19;71,87
2421,26;71,59
2419,33;71,26
2417,40;70,92
2415,47;70,57
2413,54;70,27
2411,61;70,03
2409,68;69,90
2407,75;69,84
2405,82;69,84
2403,89;69,85
2401,96;69,85
2400,03;69,82
2398,10;69,77
2396,17;69,71
2394,24;69,67
2392,31;69,64
2390,38;69,62
2388,45;69,58
2386,52;69,54
2384,59;69,47
2382,66;69,40
2380,73;69,34
2378,80;69,30
2376,87;69,33
2374,94;69,40
2373,01;69,50
2371,08;69,61
2369,15;69,70
2367,22;69,76
2365,29;69,79
2363,36;69,80
2361,43;69,81
2359,50;69,82
2357,57;69,84
2355,64;69,85
2353,71;69,87
2351,78;69,86
2349,85;69,87
2347,92;69,84
2345,99;69,83
2344,06;69,83
2342,13;69,82
2340,20;69,75
2338,27;69,66
2336,34;69,61
2334,41;69,61
2332,48;69,58
2330,55;69,51
2328,62;69,43
2326,69;69,33
2324,76;69,23
2322,83;69,14
2320,90;69,07
2318,97;68,99
2317,04;68,89
2315,11;68,75
2313,18;68,60
2311,25;68,46
2309,32;68,36
2307,39;68,29
2305,46;68,21
2303,53;68,07
2301,60;67,80
2299,67;67,38
2297,74;66,84
2295,81;66,30
2293,88;65,93
2291,95;65,86
2290,02;66,12
2288,09;66,57
2286,16;67,08
2284,23;67,56
2282,30;68,00
2280,37;68,39
2278,44;68,74
2276,51;69,05
2274,58;69,33
2272,65;69,58
2270,72;69,81
2268,79;70,03
2266,86;70,23
2264,93;70,43
2263,00;70,62
2261,07;70,81
2259,14;70,99
2257,21;71,18
2255,28;71,35
2253,35;71,51
2251,42;71,64
2249,49;71,76
2247,56;71,86
2245,63;71,95
2243,70;72,02
2241,77;72,08
2239,84;72,09
2237,91;72,07
2235,98;72,00
2234,05;71,90
2232,12;71,78
2230,19;71,67
2228,26;71,56
2226,33;71,47
2224,40;71,40
2222,47;71,35
2220,54;71,31
2218,61;71,29
2216,68;71,28
2214,75;71,28
2212,82;71,31
2210,89;71,34
2208,96;71,38
2207,03;71,41
2205,10;71,43
2203,17;71,42
2201,24;71,39
2199,31;71,32
2197,38;71,24
2195,45;71,15
2193,52;71,06
2191,59;70,96
2189,66;70,87
2187,73;70,78
2185,80;70,69
2183,87;70,63
2181,94;70,61
2180,01;70,53
2178,08;70,40
2176,15;70,34
2174,22;70,30
2172,29;70,18
2170,36;70,07
2168,43;69,95
2166,50;69,85
2164,57;69,74
2162,64;69,64
2160,71;69,55
2158,78;69,46
2156,85;69,38
2154,92;69,30
2152,99;69,23
2151,06;69,15
2149,13;69,07
2147,20;68,97
2145,27;68,87
2143,34;68,76
2141,41;68,64
2139,48;68,52
2137,55;68,43
2135,62;68,33
2133,69;68,23
2131,76;68,10
2129,83;67,95
2127,90;67,77
2125,97;67,58
2124,04;67,36
2122,11;67,13
2120,18;66,85
2118,25;66,54
2116,32;66,21
2114,39;65,87
2112,46;65,52
2110,53;65,23
2108,60;65,02
2106,67;64,89
2104,74;64,83
2102,81;64,78
2100,88;64,74
2098,95;64,69
2097,02;64,66
2095,09;64,63
2093,16;64,63
2091,23;64,67
2089,30;64,75
2087,37;64,82
2085,44;64,90
2083,51;64,98
2081,58;65,08
2079,65;65,16
2077,72;65,25
2075,79;65,33
2073,86;65,41
2071,93;65,45
2070,00;65,47
2068,07;65,48
2066,14;65,55
2064,21;65,58
2062,28;65,58
2060,35;65,55
2058,42;65,50
2056,49;65,43
2054,56;65,35
2052,63;65,24
2050,70;65,12
2048,77;64,97
2046,84;64,79
2044,91;64,60
2042,98;64,44
2041,05;64,27
2039,12;64,05
2037,19;63,82
2035,26;63,60
2033,33;63,41
2031,40;63,25
2029,47;63,13
2027,54;63,04
2025,61;63,01
2023,68;62,99
2021,75;63,01
2019,82;63,13
2017,89;63,38
2015,96;63,62
2014,03;63,83
2012,10;64,03
2010,17;64,25
2008,24;64,49
2006,31;64,73
2004,38;64,96
2002,45;65,20
2000,52;65,44
1998,59;65,61
1996,66;65,74
1994,73;65,94
1992,80;66,27
1990,87;66,66
1988,94;67,02
1987,01;67,34
1985,08;67,61
1983,15;67,81
1981,22;67,97
1979,29;68,07
1977,36;68,13
1975,43;68,13
1973,50;68,06
1971,57;67,92
1969,64;67,87
1967,71;67,93
1965,78;67,98
1963,85;67,96
1961,92;67,97
1959,99;67,99
1958,06;68,05
1956,13;68,13
1954,20;68,24
1952,27;68,32
1950,34;68,38
1948,41;68,39
1946,48;68,47
1944,55;68,70
1942,62;69,07
1940,69;69,35
1938,76;69,53
1936,83;69,72
1934,90;69,92
1932,97;70,13
1931,04;70,27
1929,11;70,32
1927,18;70,28
1925,25;70,30
1923,32;70,44
1921,39;70,61
1919,46;70,62
1917,53;70,71
1915,60;70,65
1913,67;70,50
1911,74;70,40
1909,81;70,44
1907,88;70,41
1905,95;70,31
1904,02;70,17
1902,09;70,02
1900,16;69,77
1898,23;69,57
1896,30;69,36
1894,37;69,13
1892,44;68,91
1890,51;68,79
1888,58;68,71
1886,65;68,55
1884,72;68,37
1882,79;68,16
1880,86;67,96
1878,93;67,73
1877,00;67,45
1875,07;66,99
1873,14;66,57
1871,21;66,22
1869,28;66,12
1867,35;65,97
1865,42;65,60
1863,49;65,11
1861,56;64,70
1859,63;64,27
1857,70;63,83
1855,77;63,32
1853,84;62,75
1851,91;62,04
1849,98;61,32
1848,05;60,87
1846,12;60,31
1844,19;59,66
1842,26;58,98
1840,33;58,08
1838,40;57,20
1836,47;56,18
1834,54;55,14
1832,61;54,12
1830,68;53,02
1828,75;51,99
1826,82;50,92
1824,89;49,88
1822,96;48,71
1821,03;47,49
1819,10;46,26
1817,17;44,99
1815,24;43,63
1813,31;42,36
1811,38;41,07
1809,45;39,77
1807,52;38,33
1805,59;36,83
1803,66;35,40
1801,73;33,98
1799,80;32,29
1797,87;30,57
1795,94;28,89
1794,01;27,12
1792,08;25,16
1790,15;23,13
1788,22;21,12
1786,29;19,07
1784,36;16,90
1782,43;14,78
1780,50;12,62
1778,57;10,49
1776,64;8,52
1774,71;6,71
1772,78;4,90
1770,85;3,27
1768,92;2,06
1766,99;1,14
1765,06;0,55
1763,13;0,24
1761,20;0,08
1759,27;0,03
1757,34;0,02
1755,41;0,02
1753,48;0,02
1751,55;0,03
1749,62;0,02
1747,69;0,02
1745,76;0,02
1743,83;0,02
1741,90;0,02
1739,97;0,02
1738,04;0,02
1736,11;0,02
1734,18;0,03
1732,25;0,02
1730,32;0,02
1728,39;0,02
1726,46;0,02
1724,53;0,02
1722,60;0,06
1720,67;0,12
1718,74;0,32
1716,81;0,69
1714,88;1,25
1712,95;1,88
1711,02;2,60
1709,09;3,31
1707,16;4,02
1705,23;4,73
1703,30;5,47
1701,37;6,26
1699,44;7,76
1697,51;9,33
1695,58;11,59
1693,65;14,13
1691,72;16,50
1689,79;19,14
1687,86;21,81
1685,93;24,07
1684,00;26,88
1682,07;29,22
1680,14;30,90
1678,21;32,45
1676,28;33,68
1674,35;35,06
1672,42;36,25
1670,49;37,34
1668,56;38,51
1666,63;39,57
1664,70;40,43
1662,77;41,51
1660,84;42,54
1658,91;43,28
1656,98;44,33
1655,05;45,36
1653,12;46,42
1651,19;47,56
1649,26;48,30
1647,33;49,20
1645,40;50,06
1643,47;50,63
1641,54;50,91
1639,61;51,44
1637,68;52,13
1635,75;52,67
1633,82;53,06
1631,89;53,26
1629,96;53,36
1628,03;53,52
1626,10;53,71
1624,17;53,65
1622,24;53,50
1620,31;53,44
1618,38;53,21
1616,45;52,95
1614,52;52,72
1612,59;52,18
1610,66;51,64
1608,73;51,34
1606,80;51,40
1604,87;51,52
1602,94;51,43
1601,01;51,14
1599,08;51,29
1597,15;52,30
1595,22;53,79
1593,29;55,11
1591,36;56,09
1589,43;56,78
1587,50;57,28
1585,57;57,63
1583,64;57,84
1581,71;57,82
1579,78;57,99
1577,85;58,18
1575,92;58,29
1573,99;58,50
1572,06;58,52
1570,13;58,49
1568,20;58,57
1566,27;58,33
1564,34;57,91
1562,41;57,79
1560,48;57,57
1558,55;57,66
1556,62;57,43
1554,69;56,89
1552,76;56,35
1550,83;55,98
1548,90;55,36
1546,97;54,45
1545,04;53,83
1543,11;53,59
1541,18;53,35
1539,25;52,47
1537,32;51,56
1535,39;50,59
1533,46;49,36
1531,53;47,77
1529,60;45,97
1527,67;43,99
1525,74;41,79
1523,81;39,59
1521,88;37,39
1519,95;35,44
1518,02;34,47
1516,09;34,33
1514,16;34,53
1512,23;34,54
1510,30;34,47
1508,37;34,55
1506,44;33,46
1504,51;31,42
1502,58;29,35
1500,65;26,90
1498,72;24,21
1496,79;21,20
1494,86;17,90
1492,93;14,53
1491,00;10,77
1489,07;6,73
1487,14;3,54
1485,21;1,53
1483,28;0,54
1481,35;0,14
1479,42;0,03
1477,49;0,02
1475,56;0,03
1473,63;0,03
1471,70;0,03
1469,77;0,02
1467,84;0,02
1465,91;0,02
1463,98;0,02
1462,05;0,02
1460,12;0,02
1458,19;0,03
1456,26;0,04
1454,33;0,08
1452,40;0,13
1450,47;0,23
1448,54;0,37
1446,61;0,61
1444,68;0,88
1442,75;1,17
1440,82;1,37
1438,89;1,52
1436,96;1,74
1435,03;2,13
1433,10;2,58
1431,17;3,11
1429,24;3,62
1427,31;3,96
1425,38;4,03
1423,45;3,81
1421,52;3,36
1419,59;2,79
1417,66;2,28
1415,73;2,11
1413,80;2,35
1411,87;2,96
1409,94;3,68
1408,01;4,08
1406,08;3,94
1404,15;3,26
1402,22;2,30
1400,29;1,31
1398,36;0,53
1396,43;0,14
1394,50;0,05
1392,57;0,04
1390,64;0,05
1388,71;0,05
1386,78;0,05
1384,85;0,05
1382,92;0,04
1380,99;0,04
1379,06;0,05
1377,13;0,07
1375,20;0,11
1373,27;0,11
1371,34;0,08
1369,41;0,05
1367,48;0,05
1365,55;0,05
1363,62;0,05
1361,69;0,05
1359,76;0,05
1357,83;0,06
1355,90;0,12
1353,97;0,22
1352,04;0,34
1350,11;0,49
1348,18;0,64
1346,25;0,82
1344,32;1,01
1342,39;1,20
1340,46;1,31
1338,53;1,32
1336,60;1,22
1334,67;1,04
1332,74;0,84
1330,81;0,66
1328,88;0,51
1326,95;0,42
1325,02;0,37
1323,09;0,37
1321,16;0,42
1319,23;0,52
1317,30;0,66
1315,37;0,81
1313,44;0,94
1311,51;1,01
1309,58;1,01
1307,65;0,92
1305,72;0,77
1303,79;0,58
1301,86;0,41
1299,93;0,27
1298,00;0,18
1296,07;0,12
1294,14;0,11
1292,21;0,10
1290,28;0,11
1288,35;0,10
1286,42;0,08
1284,49;0,05
1282,56;0,04
1280,63;0,03
1278,70;0,02
1276,77;0,02
1274,84;0,02
1272,91;0,02
1270,98;0,03
1269,05;0,03
1267,12;0,03
1265,19;0,03
1263,26;0,03
1261,33;0,03
1259,40;0,03
1257,47;0,03
1255,54;0,03
1253,61;0,02
1251,68;0,02
1249,75;0,03
1247,82;0,03
1245,89;0,03
1243,96;0,03
1242,03;0,02
1240,10;0,03
1238,17;0,02
1236,24;0,03
1234,31;0,02
1232,38;0,03
1230,45;0,03
1228,52;0,03
1226,59;0,03
1224,66;0,03
1222,73;0,03
1220,80;0,03
1218,87;0,03
1216,94;0,03
1215,01;0,03
1213,08;0,03
1211,15;0,03
1209,22;0,03
1207,29;0,03
1205,36;0,03
1203,43;0,03
1201,50;0,03
1199,57;0,03
1197,64;0,03
1195,71;0,03
1193,78;0,03
1191,85;0,03
1189,92;0,03
1187,99;0,03
1186,06;0,03
1184,13;0,03
1182,20;0,03
1180,27;0,03
1178,34;0,03
1176,41;0,03
1174,48;0,03
1172,55;0,03
1170,62;0,03
1168,69;0,03
1166,76;0,03
1164,83;0,03
1162,90;0,03
1160,97;0,03
1159,04;0,03
1157,11;0,04
1155,18;0,04
1153,25;0,04
1151,32;0,04
1149,39;0,04
1147,46;0,04
1145,53;0,04
1143,60;0,04
1141,67;0,04
1139,74;0,04
1137,81;0,04
1135,88;0,04
1133,95;0,04
1132,02;0,05
1130,09;0,04
1128,16;0,04
1126,23;0,04
1124,30;0,05
1122,37;0,05
1120,44;0,05
1118,51;0,05
1116,58;0,05
1114,65;0,05
1112,72;0,05
1110,79;0,06
1108,86;0,07
1106,93;0,09
1105,00;0,14
1103,07;0,20
1101,14;0,25
1099,21;0,27
1097,28;0,24
1095,35;0,19
1093,42;0,15
1091,49;0,13
1089,56;0,11
1087,63;0,09
1085,70;0,07
1083,77;0,05
1081,84;0,04
1079,91;0,03
1077,98;0,03
1076,05;0,06
1074,12;0,09
1072,19;0,05
1070,26;0,15
1068,33;0,45
1066,40;0,95
1064,47;1,57
1062,54;2,20
1060,61;2,85
1058,68;3,62
1056,75;4,63
1054,82;5,88
1052,89;7,15
1050,96;8,05
1049,03;8,27
1047,10;7,79
1045,17;6,75
1043,24;5,41
1041,31;4,00
1039,38;2,74
1037,45;1,75
1035,52;1,03
1033,59;0,58
1031,66;0,30
1029,73;0,16
1027,80;0,10
1025,87;0,07
1023,94;0,06
1022,01;0,07
1020,08;0,07
1018,15;0,08
1016,22;0,08
1014,29;0,08
1012,36;0,08
1010,43;0,08
1008,50;0,07
1006,57;0,06
1004,64;0,05
1002,71;0,05
1000,78;0,06
998,85;0,08
996,92;0,14
994,99;0,32
993,06;0,72
991,13;1,53
989,20;2,88
987,27;4,76
985,34;6,89
983,41;8,80
981,48;10,10
979,55;10,64
977,62;10,57
975,69;10,21
973,76;9,92
971,83;9,88
969,90;10,16
967,97;10,91
966,04;12,25
964,11;13,98
962,18;15,62
960,25;16,65
958,32;16,88
956,39;16,42
954,46;15,64
952,53;14,81
950,60;14,01
948,67;13,19
946,74;12,35
944,81;11,53
942,88;10,80
940,95;10,17
939,02;9,73
937,09;9,51
935,16;9,45
933,23;9,42
931,30;9,39
929,37;9,42
927,44;9,55
925,51;9,73
923,58;10,08
921,65;10,80
919,72;11,74
917,79;12,56
915,86;13,14
913,93;13,56
912,00;13,93
910,07;14,35
908,14;14,87
906,21;15,49
904,28;16,10
902,35;16,56
900,42;16,74
898,49;16,58
896,56;16,01
894,63;15,07
892,70;13,91
890,77;12,87
888,84;12,26
886,91;12,35
884,98;13,17
883,05;14,52
881,12;16,10
879,19;17,68
877,26;19,06
875,33;20,06
873,40;20,57
871,47;20,54
869,54;20,04
867,61;19,52
865,68;19,74
863,75;21,23
861,82;23,66
859,89;26,19
857,96;28,39
856,03;30,25
854,10;31,88
852,17;33,31
850,24;34,54
848,31;35,50
846,38;36,20
844,45;36,63
842,52;36,94
840,59;37,25
838,66;37,67
836,73;38,16
834,80;38,73
832,87;39,47
830,94;40,50
829,01;41,72
827,08;42,94
825,15;44,03
823,22;45,16
821,29;46,56
819,36;48,16
817,43;49,54
815,50;50,46
813,57;50,96
811,64;51,22
809,71;51,32
807,78;51,28
805,85;51,02
803,92;50,49
801,99;49,64
800,06;48,52
798,13;47,31
796,20;46,31
794,27;45,87
792,34;46,26
790,41;47,47
788,48;49,12
786,55;50,86
784,62;52,41
782,69;53,72
780,76;54,72
778,83;55,48
776,90;56,02
774,97;56,32
773,04;56,19
771,11;55,51
769,18;54,19
767,25;52,23
765,32;49,75
763,39;46,97
761,46;44,09
759,53;41,28
757,60;38,61
755,67;36,19
753,74;34,13
751,81;32,67
749,88;32,07
747,95;32,33
746,02;33,41
744,09;35,63
742,16;38,42
740,23;39,99
738,30;39,66
736,37;38,34
734,44;37,02
732,51;36,08
730,58;35,59
728,65;35,72
726,72;36,86
724,79;38,99
722,86;41,51
720,93;43,87
719,00;45,99
717,07;47,75
715,14;49,16
713,21;50,29
711,28;51,31
709,35;52,31
707,42;53,40
705,49;54,65
703,56;56,10
701,63;57,72
699,70;59,49
697,77;61,41
695,84;63,27
693,91;64,87
691,98;66,13
690,05;67,17
688,12;68,12
686,19;68,92
684,26;69,49
682,33;69,84
680,40;69,98
678,47;69,97
676,54;69,79
674,61;69,48
672,68;69,02
670,75;68,50
668,82;67,85
666,89;66,77
664,96;65,42
663,03;63,94
661,10;62,31
659,17;60,53
657,24;58,57
655,31;56,38
653,38;54,03
651,45;51,55
649,52;49,14
647,59;46,93
645,66;45,19
643,73;43,96
641,80;43,24
639,87;42,94
637,94;43,01
636,01;43,35
634,08;43,89
632,15;44,42
630,22;44,84
628,29;45,12
626,36;45,28
624,43;45,36
622,50;45,27
620,57;45,11
618,64;44,86
616,71;44,65
614,78;44,53
612,85;44,55
610,92;44,72
608,99;45,06
607,06;45,47
605,13;45,90
603,20;46,23
601,27;46,46
599,34;46,58
597,41;46,58
595,48;46,42
593,55;46,22
591,62;46,11
589,69;46,16
587,76;46,36
585,83;46,85
583,90;47,71
581,97;48,89
580,04;50,34
578,11;51,83
576,18;53,29
574,25;54,58
572,32;55,47
570,39;56,06
568,46;56,49
566,53;56,84
564,60;57,16
562,67;57,48
560,74;57,82
558,81;58,13
556,88;58,39
554,95;58,55
553,02;58,57
551,09;58,45
549,16;58,33
547,23;58,33
545,30;58,55
543,37;58,85
541,44;59,11
539,51;59,27
537,58;59,38
535,65;59,41
533,72;59,37
531,79;59,27
529,86;59,08
527,93;58,77
526,00;58,57
524,07;58,43
522,14;58,14
520,21;57,78
518,28;57,60
516,35;57,66
514,42;57,72
512,49;57,67
510,56;57,62
508,63;57,62
506,70;57,64
504,77;57,60
502,84;57,64
500,91;58,03
