Created as New Dataset;Amostra 405 por Laboratório data terça-feira, setembro 24 2024
cm-1;%T
4000,00;60,22
3998,07;60,33
3996,14;60,46
3994,21;60,60
3992,28;60,76
3990,35;60,93
3988,42;61,11
3986,49;61,30
3984,56;61,48
3982,63;61,66
3980,70;61,83
3978,77;61,98
3976,84;62,11
3974,91;62,23
3972,98;62,33
3971,05;62,42
3969,12;62,50
3967,19;62,57
3965,26;62,63
3963,33;62,68
3961,40;62,73
3959,47;62,78
3957,54;62,82
3955,61;62,86
3953,68;62,89
3951,75;62,93
3949,82;62,96
3947,89;62,99
3945,96;63,02
3944,03;63,04
3942,10;63,06
3940,17;63,07
3938,24;63,08
3936,31;63,09
3934,38;63,10
3932,45;63,11
3930,52;63,12
3928,59;63,12
3926,66;63,13
3924,73;63,13
3922,80;63,14
3920,87;63,15
3918,94;63,16
3917,01;63,16
3915,08;63,17
3913,15;63,17
3911,22;63,18
3909,29;63,19
3907,36;63,21
3905,43;63,24
3903,50;63,28
3901,57;63,31
3899,64;63,33
3897,71;63,35
3895,78;63,36
3893,85;63,38
3891,92;63,40
3889,99;63,42
3888,06;63,45
3886,13;63,47
3884,20;63,50
3882,27;63,53
3880,34;63,56
3878,41;63,58
3876,48;63,60
3874,55;63,64
3872,62;63,68
3870,69;63,71
3868,76;63,75
3866,83;63,79
3864,90;63,83
3862,97;63,86
3861,04;63,87
3859,11;63,90
3857,18;63,93
3855,25;63,95
3853,32;63,98
3851,39;64,01
3849,46;64,02
3847,53;64,03
3845,60;64,04
3843,67;64,05
3841,74;64,07
3839,81;64,09
3837,88;64,11
3835,95;64,13
3834,02;64,16
3832,09;64,17
3830,16;64,18
3828,23;64,18
3826,30;64,19
3824,37;64,21
3822,44;64,24
3820,51;64,28
3818,58;64,32
3816,65;64,37
3814,72;64,42
3812,79;64,46
3810,86;64,51
3808,93;64,57
3807,00;64,62
3805,07;64,69
3803,14;64,76
3801,21;64,82
3799,28;64,88
3797,35;64,92
3795,42;64,95
3793,49;64,97
3791,56;64,99
3789,63;65,01
3787,70;65,04
3785,77;65,08
3783,84;65,12
3781,91;65,17
3779,98;65,23
3778,05;65,28
3776,12;65,34
3774,19;65,39
3772,26;65,44
3770,33;65,49
3768,40;65,53
3766,47;65,56
3764,54;65,60
3762,61;65,63
3760,68;65,67
3758,75;65,70
3756,82;65,74
3754,89;65,78
3752,96;65,83
3751,03;65,88
3749,10;65,93
3747,17;65,98
3745,24;66,01
3743,31;66,03
3741,38;66,04
3739,45;66,06
3737,52;66,09
3735,59;66,12
3733,66;66,15
3731,73;66,15
3729,80;66,16
3727,87;66,16
3725,94;66,17
3724,01;66,18
3722,08;66,20
3720,15;66,22
3718,22;66,23
3716,29;66,24
3714,36;66,24
3712,43;66,23
3710,50;66,23
3708,57;66,22
3706,64;66,20
3704,71;66,18
3702,78;66,14
3700,85;66,10
3698,92;66,06
3696,99;66,01
3695,06;65,98
3693,13;65,94
3691,20;65,91
3689,27;65,87
3687,34;65,84
3685,41;65,80
3683,48;65,74
3681,55;65,67
3679,62;65,60
3677,69;65,52
3675,76;65,45
3673,83;65,39
3671,90;65,30
3669,97;65,20
3668,04;65,07
3666,11;64,92
3664,18;64,78
3662,25;64,62
3660,32;64,46
3658,39;64,31
3656,46;64,17
3654,53;64,03
3652,60;63,90
3650,67;63,75
3648,74;63,61
3646,81;63,47
3644,88;63,34
3642,95;63,19
3641,02;63,03
3639,09;62,88
3637,16;62,73
3635,23;62,60
3633,30;62,47
3631,37;62,33
3629,44;62,16
3627,51;62,00
3625,58;61,80
3623,65;61,56
3621,72;61,30
3619,79;61,04
3617,86;60,85
3615,93;60,74
3614,00;60,73
3612,07;60,78
3610,14;60,88
3608,21;61,00
3606,28;61,14
3604,35;61,26
3602,42;61,40
3600,49;61,56
3598,56;61,72
3596,63;61,88
3594,70;62,01
3592,77;62,11
3590,84;62,17
3588,91;62,20
3586,98;62,22
3585,05;62,22
3583,12;62,19
3581,19;62,15
3579,26;62,09
3577,33;62,03
3575,40;61,96
3573,47;61,89
3571,54;61,82
3569,61;61,76
3567,68;61,72
3565,75;61,68
3563,82;61,62
3561,89;61,54
3559,96;61,46
3558,03;61,37
3556,10;61,28
3554,17;61,18
3552,24;61,09
3550,31;61,00
3548,38;60,89
3546,45;60,78
3544,52;60,68
3542,59;60,58
3540,66;60,47
3538,73;60,34
3536,80;60,21
3534,87;60,10
3532,94;59,99
3531,01;59,87
3529,08;59,75
3527,15;59,63
3525,22;59,51
3523,29;59,38
3521,36;59,27
3519,43;59,14
3517,50;59,01
3515,57;58,87
3513,64;58,74
3511,71;58,62
3509,78;58,49
3507,85;58,37
3505,92;58,24
3503,99;58,10
3502,06;57,98
3500,13;57,85
3498,20;57,72
3496,27;57,59
3494,34;57,47
3492,41;57,34
3490,48;57,21
3488,55;57,08
3486,62;56,95
3484,69;56,82
3482,76;56,69
3480,83;56,56
3478,90;56,43
3476,97;56,31
3475,04;56,19
3473,11;56,06
3471,18;55,93
3469,25;55,80
3467,32;55,70
3465,39;55,60
3463,46;55,50
3461,53;55,39
3459,60;55,29
3457,67;55,19
3455,74;55,09
3453,81;54,98
3451,88;54,87
3449,95;54,75
3448,02;54,62
3446,09;54,47
3444,16;54,32
3442,23;54,15
3440,30;54,00
3438,37;53,86
3436,44;53,77
3434,51;53,72
3432,58;53,70
3430,65;53,69
3428,72;53,70
3426,79;53,71
3424,86;53,72
3422,93;53,73
3421,00;53,74
3419,07;53,75
3417,14;53,75
3415,21;53,75
3413,28;53,75
3411,35;53,75
3409,42;53,74
3407,49;53,74
3405,56;53,73
3403,63;53,72
3401,70;53,70
3399,77;53,70
3397,84;53,70
3395,91;53,70
3393,98;53,69
3392,05;53,68
3390,12;53,68
3388,19;53,69
3386,26;53,70
3384,33;53,71
3382,40;53,72
3380,47;53,72
3378,54;53,74
3376,61;53,76
3374,68;53,78
3372,75;53,80
3370,82;53,82
3368,89;53,85
3366,96;53,89
3365,03;53,94
3363,10;53,98
3361,17;54,03
3359,24;54,08
3357,31;54,13
3355,38;54,18
3353,45;54,23
3351,52;54,28
3349,59;54,34
3347,66;54,41
3345,73;54,47
3343,80;54,53
3341,87;54,60
3339,94;54,66
3338,01;54,74
3336,08;54,82
3334,15;54,91
3332,22;54,99
3330,29;55,07
3328,36;55,15
3326,43;55,23
3324,50;55,32
3322,57;55,41
3320,64;55,49
3318,71;55,57
3316,78;55,65
3314,85;55,73
3312,92;55,81
3310,99;55,87
3309,06;55,93
3307,13;55,99
3305,20;56,06
3303,27;56,13
3301,34;56,19
3299,41;56,25
3297,48;56,29
3295,55;56,34
3293,62;56,38
3291,69;56,43
3289,76;56,48
3287,83;56,52
3285,90;56,55
3283,97;56,58
3282,04;56,60
3280,11;56,63
3278,18;56,65
3276,25;56,66
3274,32;56,68
3272,39;56,69
3270,46;56,70
3268,53;56,71
3266,60;56,71
3264,67;56,71
3262,74;56,70
3260,81;56,70
3258,88;56,69
3256,95;56,67
3255,02;56,65
3253,09;56,63
3251,16;56,60
3249,23;56,57
3247,30;56,52
3245,37;56,47
3243,44;56,42
3241,51;56,36
3239,58;56,28
3237,65;56,20
3235,72;56,11
3233,79;56,00
3231,86;55,89
3229,93;55,77
3228,00;55,64
3226,07;55,49
3224,14;55,33
3222,21;55,15
3220,28;54,96
3218,35;54,77
3216,42;54,56
3214,49;54,33
3212,56;54,10
3210,63;53,86
3208,70;53,61
3206,77;53,36
3204,84;53,11
3202,91;52,87
3200,98;52,63
3199,05;52,40
3197,12;52,18
3195,19;51,98
3193,26;51,79
3191,33;51,62
3189,40;51,48
3187,47;51,34
3185,54;51,23
3183,61;51,14
3181,68;51,06
3179,75;51,00
3177,82;50,96
3175,89;50,93
3173,96;50,91
3172,03;50,91
3170,10;50,91
3168,17;50,93
3166,24;50,96
3164,31;51,00
3162,38;51,04
3160,45;51,09
3158,52;51,14
3156,59;51,20
3154,66;51,25
3152,73;51,31
3150,80;51,37
3148,87;51,43
3146,94;51,49
3145,01;51,54
3143,08;51,60
3141,15;51,64
3139,22;51,69
3137,29;51,73
3135,36;51,76
3133,43;51,79
3131,50;51,81
3129,57;51,82
3127,64;51,83
3125,71;51,82
3123,78;51,81
3121,85;51,79
3119,92;51,76
3117,99;51,72
3116,06;51,66
3114,13;51,59
3112,20;51,49
3110,27;51,38
3108,34;51,24
3106,41;51,09
3104,48;50,93
3102,55;50,76
3100,62;50,58
3098,69;50,39
3096,76;50,19
3094,83;49,97
3092,90;49,73
3090,97;49,47
3089,04;49,17
3087,11;48,84
3085,18;48,48
3083,25;48,11
3081,32;47,72
3079,39;47,30
3077,46;46,86
3075,53;46,39
3073,60;45,89
3071,67;45,37
3069,74;44,84
3067,81;44,28
3065,88;43,71
3063,95;43,14
3062,02;42,58
3060,09;42,04
3058,16;41,51
3056,23;40,96
3054,30;40,41
3052,37;39,84
3050,44;39,25
3048,51;38,62
3046,58;37,96
3044,65;37,26
3042,72;36,52
3040,79;35,73
3038,86;34,89
3036,93;33,99
3035,00;33,04
3033,07;32,03
3031,14;30,97
3029,21;29,89
3027,28;28,79
3025,35;27,68
3023,42;26,54
3021,49;25,35
3019,56;24,10
3017,63;22,77
3015,70;21,38
3013,77;19,90
3011,84;18,34
3009,91;16,71
3007,98;15,01
3006,05;13,26
3004,12;11,49
3002,19;9,76
3000,26;8,10
2998,33;6,58
2996,40;5,22
2994,47;4,06
2992,54;3,09
2990,61;2,30
2988,68;1,67
2986,75;1,17
2984,82;0,78
2982,89;0,49
2980,96;0,29
2979,03;0,17
2977,10;0,10
2975,17;0,07
2973,24;0,06
2971,31;0,05
2969,38;0,05
2967,45;0,05
2965,52;0,05
2963,59;0,05
2961,66;0,04
2959,73;0,04
2957,80;0,04
2955,87;0,04
2953,94;0,04
2952,01;0,04
2950,08;0,04
2948,15;0,04
2946,22;0,04
2944,29;0,04
2942,36;0,04
2940,43;0,04
2938,50;0,04
2936,57;0,04
2934,64;0,04
2932,71;0,04
2930,78;0,04
2928,85;0,04
2926,92;0,04
2924,99;0,04
2923,06;0,04
2921,13;0,04
2919,20;0,04
2917,27;0,04
2915,34;0,04
2913,41;0,04
2911,48;0,04
2909,55;0,04
2907,62;0,04
2905,69;0,04
2903,76;0,04
2901,83;0,04
2899,90;0,04
2897,97;0,04
2896,04;0,04
2894,11;0,03
2892,18;0,04
2890,25;0,04
2888,32;0,04
2886,39;0,04
2884,46;0,03
2882,53;0,03
2880,60;0,04
2878,67;0,04
2876,74;0,04
2874,81;0,04
2872,88;0,04
2870,95;0,04
2869,02;0,04
2867,09;0,04
2865,16;0,04
2863,23;0,05
2861,30;0,04
2859,37;0,05
2857,44;0,05
2855,51;0,05
2853,58;0,05
2851,65;0,06
2849,72;0,06
2847,79;0,06
2845,86;0,06
2843,93;0,06
2842,00;0,06
2840,07;0,06
2838,14;0,07
2836,21;0,11
2834,28;0,21
2832,35;0,41
2830,42;0,75
2828,49;1,21
2826,56;1,79
2824,63;2,46
2822,70;3,20
2820,77;4,00
2818,84;4,86
2816,91;5,77
2814,98;6,73
2813,05;7,74
2811,12;8,80
2809,19;9,91
2807,26;11,07
2805,33;12,25
2803,40;13,45
2801,47;14,65
2799,54;15,85
2797,61;17,05
2795,68;18,25
2793,75;19,46
2791,82;20,69
2789,89;21,94
2787,96;23,22
2786,03;24,52
2784,10;25,82
2782,17;27,12
2780,24;28,38
2778,31;29,59
2776,38;30,74
2774,45;31,79
2772,52;32,76
2770,59;33,62
2768,66;34,38
2766,73;35,03
2764,80;35,56
2762,87;35,98
2760,94;36,29
2759,01;36,56
2757,08;36,80
2755,15;37,00
2753,22;37,15
2751,29;37,22
2749,36;37,20
2747,43;37,09
2745,50;36,87
2743,57;36,55
2741,64;36,12
2739,71;35,56
2737,78;34,88
2735,85;34,10
2733,92;33,24
2731,99;32,42
2730,06;31,83
2728,13;31,56
2726,20;31,59
2724,27;31,80
2722,34;32,13
2720,41;32,57
2718,48;33,12
2716,55;33,82
2714,62;34,64
2712,69;35,50
2710,76;36,30
2708,83;36,98
2706,90;37,51
2704,97;37,90
2703,04;38,15
2701,11;38,27
2699,18;38,29
2697,25;38,21
2695,32;38,06
2693,39;37,84
2691,46;37,60
2689,53;37,36
2687,60;37,16
2685,67;37,03
2683,74;36,95
2681,81;36,92
2679,88;36,92
2677,95;36,94
2676,02;36,95
2674,09;36,96
2672,16;37,00
2670,23;37,12
2668,30;37,35
2666,37;37,70
2664,44;38,12
2662,51;38,59
2660,58;39,07
2658,65;39,55
2656,72;40,02
2654,79;40,46
2652,86;40,86
2650,93;41,22
2649,00;41,55
2647,07;41,86
2645,14;42,14
2643,21;42,41
2641,28;42,67
2639,35;42,92
2637,42;43,15
2635,49;43,37
2633,56;43,57
2631,63;43,76
2629,70;43,94
2627,77;44,12
2625,84;44,29
2623,91;44,47
2621,98;44,65
2620,05;44,83
2618,12;45,01
2616,19;45,21
2614,26;45,42
2612,33;45,64
2610,40;45,88
2608,47;46,13
2606,54;46,40
2604,61;46,69
2602,68;47,00
2600,75;47,34
2598,82;47,70
2596,89;48,09
2594,96;48,51
2593,03;48,94
2591,10;49,39
2589,17;49,86
2587,24;50,35
2585,31;50,85
2583,38;51,37
2581,45;51,90
2579,52;52,43
2577,59;52,97
2575,66;53,51
2573,73;54,04
2571,80;54,57
2569,87;55,08
2567,94;55,56
2566,01;56,03
2564,08;56,47
2562,15;56,89
2560,22;57,28
2558,29;57,64
2556,36;57,99
2554,43;58,31
2552,50;58,61
2550,57;58,89
2548,64;59,16
2546,71;59,41
2544,78;59,65
2542,85;59,88
2540,92;60,10
2538,99;60,31
2537,06;60,50
2535,13;60,70
2533,20;60,90
2531,27;61,12
2529,34;61,36
2527,41;61,64
2525,48;61,93
2523,55;62,23
2521,62;62,53
2519,69;62,82
2517,76;63,10
2515,83;63,38
2513,90;63,65
2511,97;63,91
2510,04;64,16
2508,11;64,39
2506,18;64,61
2504,25;64,82
2502,32;65,02
2500,39;65,20
2498,46;65,38
2496,53;65,55
2494,60;65,71
2492,67;65,86
2490,74;66,00
2488,81;66,12
2486,88;66,24
2484,95;66,35
2483,02;66,44
2481,09;66,53
2479,16;66,62
2477,23;66,70
2475,30;66,78
2473,37;66,85
2471,44;66,91
2469,51;66,97
2467,58;67,02
2465,65;67,06
2463,72;67,09
2461,79;67,12
2459,86;67,14
2457,93;67,16
2456,00;67,17
2454,07;67,18
2452,14;67,18
2450,21;67,18
2448,28;67,17
2446,35;67,16
2444,42;67,14
2442,49;67,12
2440,56;67,08
2438,63;67,05
2436,70;67,01
2434,77;66,97
2432,84;66,93
2430,91;66,89
2428,98;66,84
2427,05;66,80
2425,12;66,74
2423,19;66,69
2421,26;66,63
2419,33;66,57
2417,40;66,52
2415,47;66,47
2413,54;66,42
2411,61;66,38
2409,68;66,34
2407,75;66,32
2405,82;66,31
2403,89;66,30
2401,96;66,31
2400,03;66,33
2398,10;66,36
2396,17;66,39
2394,24;66,44
2392,31;66,48
2390,38;66,51
2388,45;66,54
2386,52;66,55
2384,59;66,55
2382,66;66,54
2380,73;66,52
2378,80;66,50
2376,87;66,48
2374,94;66,50
2373,01;66,54
2371,08;66,58
2369,15;66,61
2367,22;66,61
2365,29;66,59
2363,36;66,57
2361,43;66,56
2359,50;66,55
2357,57;66,56
2355,64;66,56
2353,71;66,58
2351,78;66,64
2349,85;66,66
2347,92;66,55
2345,99;66,54
2344,06;66,64
2342,13;66,67
2340,20;66,69
2338,27;66,71
2336,34;66,74
2334,41;66,75
2332,48;66,77
2330,55;66,82
2328,62;66,87
2326,69;66,90
2324,76;66,92
2322,83;66,94
2320,90;66,98
2318,97;67,04
2317,04;67,10
2315,11;67,16
2313,18;67,24
2311,25;67,32
2309,32;67,42
2307,39;67,53
2305,46;67,64
2303,53;67,74
2301,60;67,84
2299,67;67,93
2297,74;68,03
2295,81;68,12
2293,88;68,21
2291,95;68,30
2290,02;68,38
2288,09;68,46
2286,16;68,54
2284,23;68,62
2282,30;68,71
2280,37;68,82
2278,44;68,94
2276,51;69,06
2274,58;69,17
2272,65;69,27
2270,72;69,36
2268,79;69,45
2266,86;69,53
2264,93;69,61
2263,00;69,70
2261,07;69,78
2259,14;69,87
2257,21;69,94
2255,28;70,02
2253,35;70,10
2251,42;70,17
2249,49;70,24
2247,56;70,30
2245,63;70,37
2243,70;70,42
2241,77;70,47
2239,84;70,51
2237,91;70,56
2235,98;70,59
2234,05;70,62
2232,12;70,64
2230,19;70,66
2228,26;70,68
2226,33;70,70
2224,40;70,71
2222,47;70,72
2220,54;70,74
2218,61;70,75
2216,68;70,76
2214,75;70,76
2212,82;70,75
2210,89;70,75
2208,96;70,74
2207,03;70,73
2205,10;70,73
2203,17;70,72
2201,24;70,72
2199,31;70,71
2197,38;70,70
2195,45;70,68
2193,52;70,66
2191,59;70,63
2189,66;70,61
2187,73;70,60
2185,80;70,59
2183,87;70,60
2181,94;70,60
2180,01;70,57
2178,08;70,58
2176,15;70,68
2174,22;70,77
2172,29;70,82
2170,36;70,86
2168,43;70,90
2166,50;70,94
2164,57;70,98
2162,64;71,01
2160,71;71,04
2158,78;71,07
2156,85;71,11
2154,92;71,15
2152,99;71,20
2151,06;71,27
2149,13;71,37
2147,20;71,50
2145,27;71,66
2143,34;71,83
2141,41;72,00
2139,48;72,16
2137,55;72,29
2135,62;72,40
2133,69;72,49
2131,76;72,57
2129,83;72,64
2127,90;72,70
2125,97;72,76
2124,04;72,81
2122,11;72,85
2120,18;72,89
2118,25;72,93
2116,32;72,96
2114,39;73,00
2112,46;73,02
2110,53;73,06
2108,60;73,09
2106,67;73,11
2104,74;73,14
2102,81;73,16
2100,88;73,19
2098,95;73,21
2097,02;73,23
2095,09;73,24
2093,16;73,26
2091,23;73,27
2089,30;73,27
2087,37;73,27
2085,44;73,27
2083,51;73,27
2081,58;73,26
2079,65;73,25
2077,72;73,25
2075,79;73,23
2073,86;73,21
2071,93;73,19
2070,00;73,17
2068,07;73,16
2066,14;73,13
2064,21;73,09
2062,28;73,04
2060,35;72,99
2058,42;72,94
2056,49;72,89
2054,56;72,83
2052,63;72,77
2050,70;72,70
2048,77;72,63
2046,84;72,56
2044,91;72,50
2042,98;72,43
2041,05;72,35
2039,12;72,28
2037,19;72,23
2035,26;72,19
2033,33;72,17
2031,40;72,16
2029,47;72,18
2027,54;72,22
2025,61;72,30
2023,68;72,41
2021,75;72,59
2019,82;72,83
2017,89;73,08
2015,96;73,32
2014,03;73,58
2012,10;73,83
2010,17;74,06
2008,24;74,24
2006,31;74,39
2004,38;74,52
2002,45;74,63
2000,52;74,72
1998,59;74,81
1996,66;74,90
1994,73;75,01
1992,80;75,08
1990,87;75,10
1988,94;75,11
1987,01;75,13
1985,08;75,15
1983,15;75,17
1981,22;75,20
1979,29;75,22
1977,36;75,25
1975,43;75,26
1973,50;75,28
1971,57;75,31
1969,64;75,36
1967,71;75,37
1965,78;75,34
1963,85;75,32
1961,92;75,32
1959,99;75,31
1958,06;75,30
1956,13;75,29
1954,20;75,27
1952,27;75,25
1950,34;75,24
1948,41;75,24
1946,48;75,27
1944,55;75,29
1942,62;75,22
1940,69;75,10
1938,76;75,03
1936,83;75,00
1934,90;75,00
1932,97;75,00
1931,04;74,98
1929,11;74,97
1927,18;74,98
1925,25;75,02
1923,32;75,01
1921,39;74,97
1919,46;74,94
1917,53;74,87
1915,60;74,79
1913,67;74,77
1911,74;74,77
1909,81;74,74
1907,88;74,67
1905,95;74,61
1904,02;74,56
1902,09;74,53
1900,16;74,50
1898,23;74,49
1896,30;74,47
1894,37;74,43
1892,44;74,43
1890,51;74,42
1888,58;74,34
1886,65;74,27
1884,72;74,24
1882,79;74,23
1880,86;74,24
1878,93;74,26
1877,00;74,29
1875,07;74,34
1873,14;74,46
1871,21;74,64
1869,28;74,74
1867,35;74,71
1865,42;74,70
1863,49;74,72
1861,56;74,77
1859,63;74,80
1857,70;74,83
1855,77;74,85
1853,84;74,88
1851,91;74,92
1849,98;75,00
1848,05;75,07
1846,12;75,14
1844,19;75,13
1842,26;75,05
1840,33;74,99
1838,40;74,98
1836,47;74,96
1834,54;74,97
1832,61;75,03
1830,68;75,08
1828,75;75,08
1826,82;75,07
1824,89;74,99
1822,96;74,86
1821,03;74,81
1819,10;74,77
1817,17;74,72
1815,24;74,69
1813,31;74,70
1811,38;74,66
1809,45;74,59
1807,52;74,50
1805,59;74,49
1803,66;74,52
1801,73;74,47
1799,80;74,34
1797,87;74,25
1795,94;74,19
1794,01;74,20
1792,08;74,09
1790,15;73,81
1788,22;73,57
1786,29;73,33
1784,36;72,96
1782,43;72,56
1780,50;72,12
1778,57;71,78
1776,64;71,65
1774,71;71,71
1772,78;71,95
1770,85;72,21
1768,92;72,32
1766,99;72,34
1765,06;72,42
1763,13;72,52
1761,20;72,49
1759,27;72,38
1757,34;72,13
1755,41;71,74
1753,48;71,47
1751,55;71,19
1749,62;70,84
1747,69;70,51
1745,76;70,30
1743,83;70,08
1741,90;69,84
1739,97;69,55
1738,04;69,21
1736,11;68,96
1734,18;68,67
1732,25;68,31
1730,32;67,94
1728,39;67,55
1726,46;67,23
1724,53;66,79
1722,60;66,05
1720,67;65,02
1718,74;63,31
1716,81;60,55
1714,88;57,65
1712,95;55,34
1711,02;53,98
1709,09;53,46
1707,16;53,57
1705,23;54,02
1703,30;54,63
1701,37;55,45
1699,44;56,57
1697,51;57,42
1695,58;58,36
1693,65;59,28
1691,72;60,05
1689,79;60,82
1687,86;61,44
1685,93;62,12
1684,00;62,89
1682,07;63,31
1680,14;63,44
1678,21;63,57
1676,28;63,73
1674,35;63,84
1672,42;63,87
1670,49;63,84
1668,56;63,67
1666,63;63,48
1664,70;63,36
1662,77;63,24
1660,84;63,07
1658,91;62,92
1656,98;62,81
1655,05;62,70
1653,12;62,56
1651,19;62,47
1649,26;62,32
1647,33;61,99
1645,40;61,53
1643,47;61,05
1641,54;60,58
1639,61;60,11
1637,68;59,67
1635,75;59,07
1633,82;58,41
1631,89;57,86
1629,96;57,44
1628,03;57,02
1626,10;56,56
1624,17;55,92
1622,24;55,02
1620,31;54,04
1618,38;53,15
1616,45;52,26
1614,52;51,43
1612,59;50,52
1610,66;49,34
1608,73;48,08
1606,80;47,21
1604,87;46,88
1602,94;46,79
1601,01;46,96
1599,08;47,78
1597,15;49,35
1595,22;51,12
1593,29;52,55
1591,36;53,40
1589,43;53,77
1587,50;53,74
1585,57;53,45
1583,64;52,96
1581,71;52,38
1579,78;51,71
1577,85;51,07
1575,92;50,36
1573,99;49,69
1572,06;49,07
1570,13;48,40
1568,20;47,60
1566,27;46,95
1564,34;46,34
1562,41;45,96
1560,48;45,84
1558,55;45,71
1556,62;45,62
1554,69;45,68
1552,76;45,95
1550,83;46,30
1548,90;46,68
1546,97;47,11
1545,04;47,54
1543,11;47,76
1541,18;47,87
1539,25;47,78
1537,32;47,63
1535,39;47,40
1533,46;46,97
1531,53;46,26
1529,60;45,55
1527,67;44,55
1525,74;43,16
1523,81;41,44
1521,88;39,17
1519,95;36,26
1518,02;33,98
1516,09;32,35
1514,16;32,20
1512,23;33,37
1510,30;34,94
1508,37;35,94
1506,44;36,11
1504,51;35,52
1502,58;34,70
1500,65;33,73
1498,72;32,70
1496,79;31,36
1494,86;29,55
1492,93;27,53
1491,00;24,97
1489,07;21,92
1487,14;19,11
1485,21;16,64
1483,28;14,22
1481,35;11,59
1479,42;8,90
1477,49;6,37
1475,56;3,99
1473,63;2,06
1471,70;0,70
1469,77;0,17
1467,84;0,04
1465,91;0,03
1463,98;0,02
1462,05;0,03
1460,12;0,02
1458,19;0,04
1456,26;0,03
1454,33;0,04
1452,40;0,05
1450,47;0,11
1448,54;0,16
1446,61;0,29
1444,68;0,47
1442,75;0,79
1440,82;1,24
1438,89;1,89
1436,96;3,00
1435,03;4,77
1433,10;7,06
1431,17;10,20
1429,24;13,91
1427,31;17,37
1425,38;20,22
1423,45;22,59
1421,52;24,29
1419,59;25,64
1417,66;26,52
1415,73;26,97
1413,80;27,18
1411,87;27,31
1409,94;27,30
1408,01;27,28
1406,08;27,18
1404,15;27,01
1402,22;26,71
1400,29;26,24
1398,36;25,27
1396,43;23,73
1394,50;21,32
1392,57;18,53
1390,64;15,94
1388,71;13,15
1386,78;9,65
1384,85;6,18
1382,92;3,47
1380,99;1,60
1379,06;0,58
1377,13;0,32
1375,20;0,66
1373,27;1,63
1371,34;2,72
1369,41;3,12
1367,48;2,88
1365,55;3,30
1363,62;5,40
1361,69;8,76
1359,76;11,79
1357,83;13,79
1355,90;14,92
1353,97;15,57
1352,04;16,17
1350,11;17,04
1348,18;18,10
1346,25;19,12
1344,32;19,88
1342,39;20,46
1340,46;21,24
1338,53;22,54
1336,60;24,21
1334,67;25,97
1332,74;27,62
1330,81;29,05
1328,88;30,18
1326,95;30,99
1325,02;31,50
1323,09;31,70
1321,16;31,61
1319,23;31,24
1317,30;30,67
1315,37;30,02
1313,44;29,35
1311,51;28,71
1309,58;28,19
1307,65;27,84
1305,72;27,68
1303,79;27,74
1301,86;28,05
1299,93;28,65
1298,00;29,53
1296,07;30,57
1294,14;31,67
1292,21;32,75
1290,28;33,76
1288,35;34,68
1286,42;35,52
1284,49;36,27
1282,56;36,91
1280,63;37,38
1278,70;37,70
1276,77;37,91
1274,84;38,09
1272,91;38,33
1270,98;38,68
1269,05;39,13
1267,12;39,60
1265,19;39,99
1263,26;40,28
1261,33;40,52
1259,40;40,76
1257,47;40,89
1255,54;40,81
1253,61;40,51
1251,68;40,12
1249,75;39,76
1247,82;39,53
1245,89;39,50
1243,96;39,66
1242,03;39,81
1240,10;39,64
1238,17;38,89
1236,24;37,62
1234,31;36,31
1232,38;35,55
1230,45;35,63
1228,52;36,38
1226,59;37,50
1224,66;38,74
1222,73;39,97
1220,80;41,14
1218,87;42,23
1216,94;43,24
1215,01;44,17
1213,08;45,00
1211,15;45,73
1209,22;46,35
1207,29;46,90
1205,36;47,38
1203,43;47,75
1201,50;48,00
1199,57;48,11
1197,64;48,05
1195,71;47,83
1193,78;47,46
1191,85;47,06
1189,92;46,92
1187,99;47,21
1186,06;47,63
1184,13;47,79
1182,20;47,59
1180,27;47,18
1178,34;46,59
1176,41;45,68
1174,48;44,39
1172,55;42,95
1170,62;41,90
1168,69;41,66
1166,76;42,07
1164,83;42,48
1162,90;42,50
1160,97;42,14
1159,04;41,57
1157,11;41,01
1155,18;40,69
1153,25;40,75
1151,32;41,20
1149,39;41,91
1147,46;42,84
1145,53;43,96
1143,60;45,19
1141,67;46,46
1139,74;47,72
1137,81;48,89
1135,88;49,94
1133,95;50,81
1132,02;51,43
1130,09;51,77
1128,16;51,89
1126,23;51,94
1124,30;52,00
1122,37;52,06
1120,44;52,18
1118,51;52,37
1116,58;52,55
1114,65;52,67
1112,72;52,78
1110,79;53,00
1108,86;53,33
1106,93;53,69
1105,00;53,95
1103,07;54,06
1101,14;54,02
1099,21;53,84
1097,28;53,51
1095,35;53,06
1093,42;52,56
1091,49;52,16
1089,56;51,91
1087,63;51,75
1085,70;51,56
1083,77;51,29
1081,84;50,95
1079,91;50,65
1077,98;50,51
1076,05;50,64
1074,12;51,03
1072,19;51,54
1070,26;52,00
1068,33;52,37
1066,40;52,65
1064,47;52,88
1062,54;53,09
1060,61;53,31
1058,68;53,55
1056,75;53,75
1054,82;53,91
1052,89;54,01
1050,96;54,06
1049,03;54,06
1047,10;53,99
1045,17;53,81
1043,24;53,54
1041,31;53,19
1039,38;52,73
1037,45;52,14
1035,52;51,39
1033,59;50,54
1031,66;49,81
1029,73;49,44
1027,80;49,58
1025,87;50,15
1023,94;50,91
1022,01;51,57
1020,08;51,93
1018,15;51,92
1016,22;51,58
1014,29;50,99
1012,36;50,34
1010,43;49,74
1008,50;49,13
1006,57;48,36
1004,64;47,39
1002,71;46,28
1000,78;45,20
998,85;44,36
996,92;43,86
994,99;43,60
993,06;43,47
991,13;43,35
989,20;43,13
987,27;42,71
985,34;41,99
983,41;40,99
981,48;39,87
979,55;38,82
977,62;37,96
975,69;37,28
973,76;36,78
971,83;36,51
969,90;36,50
967,97;36,75
966,04;37,26
964,11;38,01
962,18;38,81
960,25;39,34
958,32;39,39
956,39;38,98
954,46;38,49
952,53;38,39
950,60;38,85
948,67;39,76
946,74;40,91
944,81;42,15
942,88;43,40
940,95;44,57
939,02;45,59
937,09;46,46
935,16;47,25
933,23;47,98
931,30;48,65
929,37;49,23
927,44;49,70
925,51;50,02
923,58;50,20
921,65;50,24
919,72;50,30
917,79;50,77
915,86;51,75
913,93;52,85
912,00;53,73
910,07;54,31
908,14;54,73
906,21;55,06
904,28;55,30
902,35;55,34
900,42;55,15
898,49;54,75
896,56;54,24
894,63;53,78
892,70;53,44
890,77;53,34
888,84;53,70
886,91;54,58
884,98;55,60
883,05;56,35
881,12;56,72
879,19;56,84
877,26;56,83
875,33;56,75
873,40;56,63
871,47;56,53
869,54;56,51
867,61;56,55
865,68;56,61
863,75;56,63
861,82;56,56
859,89;56,40
857,96;56,16
856,03;55,88
854,10;55,61
852,17;55,40
850,24;55,23
848,31;55,15
846,38;55,16
844,45;55,18
842,52;55,26
840,59;55,42
838,66;55,56
836,73;55,64
834,80;55,66
832,87;55,63
830,94;55,63
829,01;55,67
827,08;55,66
825,15;55,43
823,22;54,98
821,29;54,50
819,36;54,21
817,43;54,12
815,50;54,19
813,57;54,47
811,64;54,99
809,71;55,62
807,78;56,17
805,85;56,63
803,92;57,11
801,99;57,70
800,06;58,31
798,13;58,80
796,20;59,15
794,27;59,36
792,34;59,35
790,41;59,08
788,48;58,51
786,55;57,62
784,62;56,48
782,69;55,19
780,76;53,83
778,83;52,40
776,90;50,83
774,97;49,21
773,04;47,77
771,11;46,80
769,18;46,43
767,25;46,50
765,32;46,82
763,39;47,22
761,46;47,48
759,53;47,46
757,60;47,06
755,67;46,31
753,74;45,24
751,81;44,01
749,88;42,79
747,95;41,75
746,02;40,86
744,09;39,83
742,16;38,37
740,23;36,59
738,30;34,91
736,37;33,50
734,44;32,08
732,51;30,25
730,58;27,80
728,65;24,79
726,72;21,51
724,79;18,36
722,86;16,31
720,93;16,86
719,00;20,84
717,07;27,07
715,14;33,72
713,21;39,79
711,28;45,22
709,35;50,00
707,42;54,05
705,49;57,27
703,56;59,64
701,63;61,14
699,70;62,22
697,77;63,64
695,84;65,61
693,91;67,36
691,98;68,45
690,05;69,11
688,12;69,61
686,19;69,90
684,26;69,90
682,33;69,58
680,40;68,99
678,47;68,24
676,54;67,42
674,61;66,66
672,68;66,04
670,75;65,61
668,82;65,41
666,89;65,32
664,96;64,99
663,03;64,63
661,10;64,39
659,17;64,10
657,24;63,86
655,31;63,87
653,38;64,44
651,45;65,55
649,52;67,03
647,59;68,48
645,66;69,65
643,73;70,34
641,80;70,61
639,87;70,62
637,94;70,74
636,01;71,21
634,08;71,88
632,15;72,48
630,22;72,91
628,29;73,18
626,36;73,36
624,43;73,45
622,50;73,44
620,57;73,40
618,64;73,33
616,71;73,27
614,78;73,21
612,85;73,14
610,92;73,04
608,99;72,95
607,06;72,81
605,13;72,66
603,20;72,47
601,27;72,31
599,34;72,11
597,41;71,89
595,48;71,67
593,55;71,49
591,62;71,25
589,69;70,98
587,76;70,77
585,83;70,70
583,90;70,74
581,97;70,86
580,04;70,91
578,11;70,95
576,18;71,00
574,25;70,96
572,32;70,84
570,39;70,62
568,46;70,28
566,53;69,88
564,60;69,55
562,67;69,32
560,74;69,25
558,81;69,23
556,88;69,23
554,95;69,17
553,02;69,13
551,09;69,11
549,16;69,19
547,23;69,35
545,30;69,61
543,37;69,82
541,44;69,99
539,51;70,07
537,58;70,20
535,65;70,36
533,72;70,57
531,79;70,79
529,86;71,05
527,93;71,35
526,00;71,65
524,07;71,81
522,14;72,04
520,21;72,35
518,28;72,61
516,35;72,76
514,42;72,81
512,49;72,88
510,56;72,94
508,63;73,02
506,70;73,03
504,77;73,06
502,84;73,08
500,91;73,00
