Created as New Dataset;Amostra 416 por Laboratório data terça-feira, setembro 24 2024
cm-1;%T
4000,00;64,17
3998,07;64,30
3996,14;64,45
3994,21;64,61
3992,28;64,80
3990,35;65,00
3988,42;65,20
3986,49;65,41
3984,56;65,63
3982,63;65,83
3980,70;66,03
3978,77;66,20
3976,84;66,35
3974,91;66,49
3972,98;66,60
3971,05;66,70
3969,12;66,79
3967,19;66,87
3965,26;66,94
3963,33;67,00
3961,40;67,05
3959,47;67,11
3957,54;67,15
3955,61;67,20
3953,68;67,24
3951,75;67,28
3949,82;67,32
3947,89;67,35
3945,96;67,38
3944,03;67,41
3942,10;67,43
3940,17;67,45
3938,24;67,46
3936,31;67,47
3934,38;67,48
3932,45;67,49
3930,52;67,50
3928,59;67,51
3926,66;67,52
3924,73;67,53
3922,80;67,54
3920,87;67,54
3918,94;67,55
3917,01;67,56
3915,08;67,57
3913,15;67,58
3911,22;67,59
3909,29;67,61
3907,36;67,63
3905,43;67,64
3903,50;67,67
3901,57;67,70
3899,64;67,73
3897,71;67,76
3895,78;67,79
3893,85;67,81
3891,92;67,84
3889,99;67,86
3888,06;67,89
3886,13;67,91
3884,20;67,94
3882,27;67,97
3880,34;68,00
3878,41;68,04
3876,48;68,07
3874,55;68,11
3872,62;68,15
3870,69;68,18
3868,76;68,23
3866,83;68,27
3864,90;68,32
3862,97;68,36
3861,04;68,39
3859,11;68,42
3857,18;68,44
3855,25;68,46
3853,32;68,49
3851,39;68,52
3849,46;68,54
3847,53;68,57
3845,60;68,59
3843,67;68,61
3841,74;68,62
3839,81;68,64
3837,88;68,66
3835,95;68,68
3834,02;68,72
3832,09;68,75
3830,16;68,77
3828,23;68,78
3826,30;68,78
3824,37;68,80
3822,44;68,82
3820,51;68,86
3818,58;68,92
3816,65;68,97
3814,72;69,05
3812,79;69,11
3810,86;69,17
3808,93;69,24
3807,00;69,30
3805,07;69,37
3803,14;69,44
3801,21;69,51
3799,28;69,58
3797,35;69,63
3795,42;69,68
3793,49;69,72
3791,56;69,75
3789,63;69,78
3787,70;69,82
3785,77;69,87
3783,84;69,92
3781,91;69,97
3779,98;70,04
3778,05;70,11
3776,12;70,18
3774,19;70,25
3772,26;70,31
3770,33;70,37
3768,40;70,42
3766,47;70,47
3764,54;70,51
3762,61;70,56
3760,68;70,60
3758,75;70,65
3756,82;70,70
3754,89;70,75
3752,96;70,80
3751,03;70,86
3749,10;70,92
3747,17;70,97
3745,24;71,01
3743,31;71,05
3741,38;71,08
3739,45;71,12
3737,52;71,17
3735,59;71,20
3733,66;71,24
3731,73;71,28
3729,80;71,31
3727,87;71,34
3725,94;71,37
3724,01;71,41
3722,08;71,45
3720,15;71,49
3718,22;71,52
3716,29;71,56
3714,36;71,58
3712,43;71,59
3710,50;71,60
3708,57;71,61
3706,64;71,62
3704,71;71,63
3702,78;71,63
3700,85;71,62
3698,92;71,61
3696,99;71,60
3695,06;71,59
3693,13;71,59
3691,20;71,59
3689,27;71,58
3687,34;71,59
3685,41;71,61
3683,48;71,62
3681,55;71,61
3679,62;71,60
3677,69;71,59
3675,76;71,57
3673,83;71,55
3671,90;71,52
3669,97;71,47
3668,04;71,38
3666,11;71,27
3664,18;71,14
3662,25;70,94
3660,32;70,67
3658,39;70,29
3656,46;69,75
3654,53;69,16
3652,60;68,65
3650,67;68,30
3648,74;68,25
3646,81;68,49
3644,88;68,85
3642,95;69,22
3641,02;69,54
3639,09;69,77
3637,16;69,93
3635,23;70,01
3633,30;70,07
3631,37;70,08
3629,44;70,07
3627,51;70,06
3625,58;70,04
3623,65;70,03
3621,72;70,00
3619,79;69,96
3617,86;69,92
3615,93;69,89
3614,00;69,87
3612,07;69,86
3610,14;69,87
3608,21;69,91
3606,28;69,98
3604,35;70,10
3602,42;70,27
3600,49;70,47
3598,56;70,68
3596,63;70,90
3594,70;71,08
3592,77;71,23
3590,84;71,34
3588,91;71,42
3586,98;71,46
3585,05;71,48
3583,12;71,50
3581,19;71,50
3579,26;71,49
3577,33;71,46
3575,40;71,42
3573,47;71,38
3571,54;71,34
3569,61;71,31
3567,68;71,27
3565,75;71,23
3563,82;71,18
3561,89;71,14
3559,96;71,08
3558,03;71,03
3556,10;70,96
3554,17;70,90
3552,24;70,82
3550,31;70,74
3548,38;70,65
3546,45;70,55
3544,52;70,44
3542,59;70,35
3540,66;70,26
3538,73;70,15
3536,80;70,04
3534,87;69,93
3532,94;69,82
3531,01;69,71
3529,08;69,60
3527,15;69,48
3525,22;69,35
3523,29;69,23
3521,36;69,11
3519,43;68,99
3517,50;68,86
3515,57;68,73
3513,64;68,60
3511,71;68,48
3509,78;68,36
3507,85;68,23
3505,92;68,10
3503,99;67,96
3502,06;67,83
3500,13;67,70
3498,20;67,58
3496,27;67,45
3494,34;67,32
3492,41;67,19
3490,48;67,06
3488,55;66,93
3486,62;66,79
3484,69;66,66
3482,76;66,53
3480,83;66,40
3478,90;66,27
3476,97;66,15
3475,04;66,02
3473,11;65,90
3471,18;65,77
3469,25;65,64
3467,32;65,53
3465,39;65,42
3463,46;65,32
3461,53;65,21
3459,60;65,11
3457,67;65,01
3455,74;64,90
3453,81;64,79
3451,88;64,68
3449,95;64,56
3448,02;64,42
3446,09;64,26
3444,16;64,09
3442,23;63,91
3440,30;63,74
3438,37;63,60
3436,44;63,51
3434,51;63,47
3432,58;63,46
3430,65;63,47
3428,72;63,50
3426,79;63,53
3424,86;63,57
3422,93;63,60
3421,00;63,63
3419,07;63,65
3417,14;63,66
3415,21;63,67
3413,28;63,67
3411,35;63,67
3409,42;63,67
3407,49;63,65
3405,56;63,63
3403,63;63,61
3401,70;63,59
3399,77;63,56
3397,84;63,54
3395,91;63,51
3393,98;63,47
3392,05;63,44
3390,12;63,40
3388,19;63,37
3386,26;63,35
3384,33;63,33
3382,40;63,31
3380,47;63,28
3378,54;63,26
3376,61;63,25
3374,68;63,24
3372,75;63,22
3370,82;63,21
3368,89;63,21
3366,96;63,21
3365,03;63,22
3363,10;63,23
3361,17;63,25
3359,24;63,26
3357,31;63,27
3355,38;63,29
3353,45;63,30
3351,52;63,32
3349,59;63,34
3347,66;63,37
3345,73;63,40
3343,80;63,43
3341,87;63,46
3339,94;63,49
3338,01;63,53
3336,08;63,59
3334,15;63,64
3332,22;63,70
3330,29;63,76
3328,36;63,81
3326,43;63,87
3324,50;63,93
3322,57;64,00
3320,64;64,06
3318,71;64,12
3316,78;64,18
3314,85;64,24
3312,92;64,29
3310,99;64,33
3309,06;64,37
3307,13;64,41
3305,20;64,46
3303,27;64,52
3301,34;64,57
3299,41;64,61
3297,48;64,64
3295,55;64,67
3293,62;64,70
3291,69;64,73
3289,76;64,77
3287,83;64,80
3285,90;64,82
3283,97;64,84
3282,04;64,86
3280,11;64,87
3278,18;64,88
3276,25;64,88
3274,32;64,88
3272,39;64,88
3270,46;64,87
3268,53;64,87
3266,60;64,87
3264,67;64,85
3262,74;64,83
3260,81;64,80
3258,88;64,77
3256,95;64,73
3255,02;64,69
3253,09;64,64
3251,16;64,59
3249,23;64,52
3247,30;64,44
3245,37;64,37
3243,44;64,29
3241,51;64,19
3239,58;64,08
3237,65;63,96
3235,72;63,83
3233,79;63,68
3231,86;63,53
3229,93;63,37
3228,00;63,19
3226,07;62,99
3224,14;62,78
3222,21;62,55
3220,28;62,31
3218,35;62,05
3216,42;61,77
3214,49;61,49
3212,56;61,19
3210,63;60,88
3208,70;60,56
3206,77;60,24
3204,84;59,92
3202,91;59,60
3200,98;59,29
3199,05;58,99
3197,12;58,70
3195,19;58,43
3193,26;58,18
3191,33;57,95
3189,40;57,73
3187,47;57,55
3185,54;57,38
3183,61;57,23
3181,68;57,11
3179,75;57,00
3177,82;56,92
3175,89;56,85
3173,96;56,81
3172,03;56,78
3170,10;56,76
3168,17;56,76
3166,24;56,77
3164,31;56,79
3162,38;56,81
3160,45;56,84
3158,52;56,88
3156,59;56,92
3154,66;56,96
3152,73;56,99
3150,80;57,04
3148,87;57,09
3146,94;57,13
3145,01;57,16
3143,08;57,19
3141,15;57,21
3139,22;57,23
3137,29;57,24
3135,36;57,25
3133,43;57,25
3131,50;57,24
3129,57;57,22
3127,64;57,19
3125,71;57,16
3123,78;57,11
3121,85;57,05
3119,92;56,97
3117,99;56,89
3116,06;56,79
3114,13;56,68
3112,20;56,55
3110,27;56,39
3108,34;56,21
3106,41;56,02
3104,48;55,81
3102,55;55,59
3100,62;55,35
3098,69;55,10
3096,76;54,83
3094,83;54,56
3092,90;54,28
3090,97;53,98
3089,04;53,66
3087,11;53,31
3085,18;52,93
3083,25;52,53
3081,32;52,10
3079,39;51,64
3077,46;51,16
3075,53;50,66
3073,60;50,13
3071,67;49,57
3069,74;49,00
3067,81;48,39
3065,88;47,77
3063,95;47,14
3062,02;46,49
3060,09;45,84
3058,16;45,17
3056,23;44,49
3054,30;43,81
3052,37;43,13
3050,44;42,44
3048,51;41,72
3046,58;40,98
3044,65;40,19
3042,72;39,37
3040,79;38,49
3038,86;37,56
3036,93;36,58
3035,00;35,55
3033,07;34,47
3031,14;33,34
3029,21;32,17
3027,28;30,98
3025,35;29,74
3023,42;28,45
3021,49;27,10
3019,56;25,70
3017,63;24,22
3015,70;22,67
3013,77;21,04
3011,84;19,33
3009,91;17,54
3007,98;15,70
3006,05;13,81
3004,12;11,93
3002,19;10,09
3000,26;8,35
2998,33;6,75
2996,40;5,34
2994,47;4,12
2992,54;3,11
2990,61;2,30
2988,68;1,65
2986,75;1,14
2984,82;0,75
2982,89;0,46
2980,96;0,26
2979,03;0,15
2977,10;0,09
2975,17;0,06
2973,24;0,05
2971,31;0,05
2969,38;0,05
2967,45;0,05
2965,52;0,05
2963,59;0,05
2961,66;0,04
2959,73;0,04
2957,80;0,04
2955,87;0,04
2953,94;0,04
2952,01;0,04
2950,08;0,04
2948,15;0,04
2946,22;0,04
2944,29;0,04
2942,36;0,04
2940,43;0,04
2938,50;0,04
2936,57;0,04
2934,64;0,04
2932,71;0,04
2930,78;0,04
2928,85;0,04
2926,92;0,04
2924,99;0,04
2923,06;0,04
2921,13;0,04
2919,20;0,04
2917,27;0,04
2915,34;0,04
2913,41;0,04
2911,48;0,04
2909,55;0,04
2907,62;0,04
2905,69;0,04
2903,76;0,04
2901,83;0,04
2899,90;0,04
2897,97;0,03
2896,04;0,04
2894,11;0,04
2892,18;0,04
2890,25;0,04
2888,32;0,04
2886,39;0,03
2884,46;0,03
2882,53;0,04
2880,60;0,04
2878,67;0,04
2876,74;0,04
2874,81;0,04
2872,88;0,04
2870,95;0,04
2869,02;0,04
2867,09;0,04
2865,16;0,04
2863,23;0,04
2861,30;0,04
2859,37;0,05
2857,44;0,05
2855,51;0,05
2853,58;0,05
2851,65;0,05
2849,72;0,05
2847,79;0,05
2845,86;0,06
2843,93;0,06
2842,00;0,06
2840,07;0,05
2838,14;0,06
2836,21;0,09
2834,28;0,17
2832,35;0,34
2830,42;0,62
2828,49;1,03
2826,56;1,55
2824,63;2,17
2822,70;2,85
2820,77;3,60
2818,84;4,42
2816,91;5,29
2814,98;6,21
2813,05;7,19
2811,12;8,23
2809,19;9,33
2807,26;10,49
2805,33;11,68
2803,40;12,89
2801,47;14,11
2799,54;15,34
2797,61;16,58
2795,68;17,83
2793,75;19,11
2791,82;20,41
2789,89;21,74
2787,96;23,12
2786,03;24,51
2784,10;25,92
2782,17;27,32
2780,24;28,68
2778,31;30,00
2776,38;31,24
2774,45;32,39
2772,52;33,44
2770,59;34,38
2768,66;35,21
2766,73;35,92
2764,80;36,49
2762,87;36,93
2760,94;37,27
2759,01;37,55
2757,08;37,81
2755,15;38,03
2753,22;38,19
2751,29;38,26
2749,36;38,23
2747,43;38,09
2745,50;37,85
2743,57;37,50
2741,64;37,03
2739,71;36,42
2737,78;35,69
2735,85;34,84
2733,92;33,91
2731,99;33,03
2730,06;32,37
2728,13;32,05
2726,20;32,04
2724,27;32,22
2722,34;32,53
2720,41;32,97
2718,48;33,55
2716,55;34,29
2714,62;35,17
2712,69;36,10
2710,76;36,96
2708,83;37,68
2706,90;38,25
2704,97;38,66
2703,04;38,93
2701,11;39,07
2699,18;39,10
2697,25;39,03
2695,32;38,87
2693,39;38,66
2691,46;38,42
2689,53;38,19
2687,60;38,00
2685,67;37,87
2683,74;37,80
2681,81;37,78
2679,88;37,79
2677,95;37,81
2676,02;37,82
2674,09;37,83
2672,16;37,87
2670,23;37,98
2668,30;38,22
2666,37;38,59
2664,44;39,03
2662,51;39,52
2660,58;40,03
2658,65;40,54
2656,72;41,04
2654,79;41,51
2652,86;41,93
2650,93;42,32
2649,00;42,67
2647,07;42,99
2645,14;43,30
2643,21;43,58
2641,28;43,85
2639,35;44,11
2637,42;44,35
2635,49;44,58
2633,56;44,79
2631,63;44,99
2629,70;45,18
2627,77;45,37
2625,84;45,55
2623,91;45,73
2621,98;45,91
2620,05;46,10
2618,12;46,30
2616,19;46,51
2614,26;46,73
2612,33;46,96
2610,40;47,22
2608,47;47,49
2606,54;47,78
2604,61;48,09
2602,68;48,43
2600,75;48,80
2598,82;49,19
2596,89;49,62
2594,96;50,07
2593,03;50,54
2591,10;51,03
2589,17;51,55
2587,24;52,09
2585,31;52,64
2583,38;53,21
2581,45;53,78
2579,52;54,37
2577,59;54,96
2575,66;55,55
2573,73;56,13
2571,80;56,70
2569,87;57,26
2567,94;57,79
2566,01;58,30
2564,08;58,78
2562,15;59,24
2560,22;59,67
2558,29;60,07
2556,36;60,45
2554,43;60,81
2552,50;61,14
2550,57;61,45
2548,64;61,75
2546,71;62,03
2544,78;62,30
2542,85;62,55
2540,92;62,79
2538,99;63,02
2537,06;63,24
2535,13;63,44
2533,20;63,66
2531,27;63,90
2529,34;64,17
2527,41;64,46
2525,48;64,78
2523,55;65,10
2521,62;65,42
2519,69;65,74
2517,76;66,05
2515,83;66,35
2513,90;66,64
2511,97;66,92
2510,04;67,19
2508,11;67,44
2506,18;67,68
2504,25;67,90
2502,32;68,11
2500,39;68,32
2498,46;68,51
2496,53;68,70
2494,60;68,87
2492,67;69,03
2490,74;69,18
2488,81;69,31
2486,88;69,44
2484,95;69,55
2483,02;69,65
2481,09;69,75
2479,16;69,84
2477,23;69,93
2475,30;70,01
2473,37;70,09
2471,44;70,16
2469,51;70,22
2467,58;70,27
2465,65;70,31
2463,72;70,35
2461,79;70,38
2459,86;70,40
2457,93;70,41
2456,00;70,41
2454,07;70,42
2452,14;70,41
2450,21;70,40
2448,28;70,39
2446,35;70,37
2444,42;70,35
2442,49;70,32
2440,56;70,28
2438,63;70,23
2436,70;70,18
2434,77;70,13
2432,84;70,07
2430,91;70,01
2428,98;69,95
2427,05;69,89
2425,12;69,83
2423,19;69,77
2421,26;69,70
2419,33;69,64
2417,40;69,57
2415,47;69,51
2413,54;69,46
2411,61;69,41
2409,68;69,37
2407,75;69,34
2405,82;69,33
2403,89;69,32
2401,96;69,33
2400,03;69,34
2398,10;69,37
2396,17;69,41
2394,24;69,46
2392,31;69,50
2390,38;69,53
2388,45;69,56
2386,52;69,58
2384,59;69,58
2382,66;69,57
2380,73;69,55
2378,80;69,53
2376,87;69,52
2374,94;69,52
2373,01;69,56
2371,08;69,59
2369,15;69,62
2367,22;69,62
2365,29;69,61
2363,36;69,60
2361,43;69,59
2359,50;69,58
2357,57;69,58
2355,64;69,59
2353,71;69,62
2351,78;69,67
2349,85;69,67
2347,92;69,61
2345,99;69,62
2344,06;69,68
2342,13;69,71
2340,20;69,72
2338,27;69,73
2336,34;69,74
2334,41;69,76
2332,48;69,80
2330,55;69,87
2328,62;69,93
2326,69;69,97
2324,76;70,00
2322,83;70,04
2320,90;70,08
2318,97;70,15
2317,04;70,22
2315,11;70,28
2313,18;70,36
2311,25;70,46
2309,32;70,56
2307,39;70,67
2305,46;70,78
2303,53;70,89
2301,60;70,99
2299,67;71,08
2297,74;71,18
2295,81;71,28
2293,88;71,38
2291,95;71,46
2290,02;71,54
2288,09;71,63
2286,16;71,71
2284,23;71,80
2282,30;71,89
2280,37;72,01
2278,44;72,14
2276,51;72,28
2274,58;72,40
2272,65;72,51
2270,72;72,60
2268,79;72,70
2266,86;72,79
2264,93;72,88
2263,00;72,97
2261,07;73,06
2259,14;73,14
2257,21;73,23
2255,28;73,31
2253,35;73,39
2251,42;73,46
2249,49;73,54
2247,56;73,61
2245,63;73,68
2243,70;73,73
2241,77;73,79
2239,84;73,83
2237,91;73,88
2235,98;73,91
2234,05;73,94
2232,12;73,96
2230,19;73,98
2228,26;74,00
2226,33;74,02
2224,40;74,03
2222,47;74,04
2220,54;74,05
2218,61;74,07
2216,68;74,07
2214,75;74,07
2212,82;74,06
2210,89;74,05
2208,96;74,04
2207,03;74,03
2205,10;74,02
2203,17;74,02
2201,24;74,01
2199,31;74,00
2197,38;73,98
2195,45;73,96
2193,52;73,94
2191,59;73,91
2189,66;73,88
2187,73;73,86
2185,80;73,84
2183,87;73,81
2181,94;73,80
2180,01;73,82
2178,08;73,87
2176,15;73,96
2174,22;74,06
2172,29;74,11
2170,36;74,15
2168,43;74,19
2166,50;74,24
2164,57;74,28
2162,64;74,32
2160,71;74,35
2158,78;74,38
2156,85;74,42
2154,92;74,46
2152,99;74,52
2151,06;74,59
2149,13;74,70
2147,20;74,84
2145,27;75,01
2143,34;75,19
2141,41;75,38
2139,48;75,54
2137,55;75,68
2135,62;75,80
2133,69;75,89
2131,76;75,97
2129,83;76,05
2127,90;76,11
2125,97;76,17
2124,04;76,22
2122,11;76,27
2120,18;76,30
2118,25;76,34
2116,32;76,37
2114,39;76,40
2112,46;76,43
2110,53;76,47
2108,60;76,50
2106,67;76,52
2104,74;76,55
2102,81;76,58
2100,88;76,60
2098,95;76,62
2097,02;76,64
2095,09;76,66
2093,16;76,68
2091,23;76,68
2089,30;76,69
2087,37;76,68
2085,44;76,68
2083,51;76,68
2081,58;76,68
2079,65;76,66
2077,72;76,65
2075,79;76,62
2073,86;76,60
2071,93;76,57
2070,00;76,55
2068,07;76,52
2066,14;76,48
2064,21;76,42
2062,28;76,37
2060,35;76,31
2058,42;76,25
2056,49;76,18
2054,56;76,11
2052,63;76,04
2050,70;75,96
2048,77;75,88
2046,84;75,81
2044,91;75,73
2042,98;75,65
2041,05;75,56
2039,12;75,48
2037,19;75,42
2035,26;75,37
2033,33;75,34
2031,40;75,34
2029,47;75,36
2027,54;75,40
2025,61;75,48
2023,68;75,61
2021,75;75,82
2019,82;76,06
2017,89;76,31
2015,96;76,57
2014,03;76,85
2012,10;77,11
2010,17;77,34
2008,24;77,53
2006,31;77,69
2004,38;77,82
2002,45;77,94
2000,52;78,03
1998,59;78,12
1996,66;78,23
1994,73;78,33
1992,80;78,39
1990,87;78,41
1988,94;78,41
1987,01;78,42
1985,08;78,44
1983,15;78,46
1981,22;78,49
1979,29;78,50
1977,36;78,52
1975,43;78,53
1973,50;78,56
1971,57;78,60
1969,64;78,64
1967,71;78,63
1965,78;78,60
1963,85;78,57
1961,92;78,56
1959,99;78,55
1958,06;78,55
1956,13;78,54
1954,20;78,52
1952,27;78,50
1950,34;78,51
1948,41;78,54
1946,48;78,58
1944,55;78,57
1942,62;78,51
1940,69;78,41
1938,76;78,35
1936,83;78,33
1934,90;78,32
1932,97;78,30
1931,04;78,27
1929,11;78,27
1927,18;78,32
1925,25;78,36
1923,32;78,35
1921,39;78,24
1919,46;78,17
1917,53;78,15
1915,60;78,08
1913,67;78,08
1911,74;78,08
1909,81;78,04
1907,88;77,95
1905,95;77,90
1904,02;77,85
1902,09;77,82
1900,16;77,80
1898,23;77,81
1896,30;77,79
1894,37;77,78
1892,44;77,76
1890,51;77,75
1888,58;77,69
1886,65;77,63
1884,72;77,61
1882,79;77,59
1880,86;77,60
1878,93;77,61
1877,00;77,65
1875,07;77,74
1873,14;77,89
1871,21;78,05
1869,28;78,17
1867,35;78,10
1865,42;78,03
1863,49;78,04
1861,56;78,09
1859,63;78,11
1857,70;78,14
1855,77;78,15
1853,84;78,20
1851,91;78,26
1849,98;78,41
1848,05;78,40
1846,12;78,32
1844,19;78,40
1842,26;78,34
1840,33;78,26
1838,40;78,25
1836,47;78,23
1834,54;78,28
1832,61;78,32
1830,68;78,41
1828,75;78,36
1826,82;78,23
1824,89;78,17
1822,96;78,02
1821,03;77,95
1819,10;77,90
1817,17;77,88
1815,24;77,88
1813,31;77,89
1811,38;77,84
1809,45;77,74
1807,52;77,64
1805,59;77,65
1803,66;77,66
1801,73;77,63
1799,80;77,55
1797,87;77,52
1795,94;77,38
1794,01;77,30
1792,08;77,20
1790,15;76,93
1788,22;76,64
1786,29;76,42
1784,36;76,17
1782,43;75,78
1780,50;75,30
1778,57;74,87
1776,64;74,54
1774,71;74,27
1772,78;74,31
1770,85;74,23
1768,92;74,20
1766,99;74,35
1765,06;74,42
1763,13;74,56
1761,20;74,70
1759,27;74,56
1757,34;74,45
1755,41;74,16
1753,48;73,79
1751,55;73,35
1749,62;72,31
1747,69;70,75
1745,76;69,01
1743,83;67,20
1741,90;65,75
1739,97;65,20
1738,04;65,12
1736,11;65,36
1734,18;66,26
1732,25;66,70
1730,32;66,65
1728,39;66,44
1726,46;66,09
1724,53;65,46
1722,60;64,36
1720,67;62,72
1718,74;60,38
1716,81;56,73
1714,88;52,93
1712,95;49,68
1711,02;47,20
1709,09;45,48
1707,16;44,60
1705,23;44,42
1703,30;44,57
1701,37;45,65
1699,44;47,61
1697,51;48,97
1695,58;51,02
1693,65;53,01
1691,72;54,70
1689,79;56,45
1687,86;57,80
1685,93;59,03
1684,00;60,54
1682,07;61,46
1680,14;62,02
1678,21;62,43
1676,28;63,09
1674,35;63,93
1672,42;64,39
1670,49;64,81
1668,56;65,25
1666,63;65,53
1664,70;65,78
1662,77;66,14
1660,84;66,37
1658,91;66,68
1656,98;66,78
1655,05;66,72
1653,12;67,26
1651,19;67,68
1649,26;67,64
1647,33;67,54
1645,40;67,53
1643,47;67,51
1641,54;67,64
1639,61;67,81
1637,68;67,80
1635,75;67,88
1633,82;67,94
1631,89;67,87
1629,96;67,92
1628,03;67,96
1626,10;67,88
1624,17;67,71
1622,24;67,45
1620,31;66,91
1618,38;66,38
1616,45;65,94
1614,52;65,26
1612,59;64,37
1610,66;63,19
1608,73;61,94
1606,80;61,25
1604,87;61,17
1602,94;61,11
1601,01;60,96
1599,08;61,31
1597,15;62,37
1595,22;63,62
1593,29;64,53
1591,36;65,01
1589,43;65,22
1587,50;65,26
1585,57;65,21
1583,64;65,05
1581,71;64,93
1579,78;64,66
1577,85;64,34
1575,92;64,19
1573,99;63,93
1572,06;63,57
1570,13;63,27
1568,20;62,80
1566,27;62,36
1564,34;61,94
1562,41;61,44
1560,48;61,24
1558,55;60,73
1556,62;59,92
1554,69;59,27
1552,76;58,65
1550,83;57,98
1548,90;57,26
1546,97;56,69
1545,04;56,18
1543,11;55,44
1541,18;54,45
1539,25;53,33
1537,32;52,36
1535,39;51,43
1533,46;50,35
1531,53;49,04
1529,60;47,81
1527,67;46,32
1525,74;44,49
1523,81;42,30
1521,88;39,58
1519,95;36,34
1518,02;33,83
1516,09;32,10
1514,16;31,90
1512,23;33,01
1510,30;34,44
1508,37;35,18
1506,44;35,18
1504,51;34,58
1502,58;33,63
1500,65;32,51
1498,72;31,33
1496,79;30,08
1494,86;28,57
1492,93;26,76
1491,00;24,36
1489,07;21,38
1487,14;18,63
1485,21;16,24
1483,28;13,95
1481,35;11,48
1479,42;8,90
1477,49;6,40
1475,56;3,98
1473,63;2,01
1471,70;0,65
1469,77;0,14
1467,84;0,03
1465,91;0,03
1463,98;0,02
1462,05;0,03
1460,12;0,02
1458,19;0,03
1456,26;0,02
1454,33;0,04
1452,40;0,04
1450,47;0,09
1448,54;0,14
1446,61;0,27
1444,68;0,44
1442,75;0,76
1440,82;1,21
1438,89;1,85
1436,96;2,92
1435,03;4,65
1433,10;6,86
1431,17;9,86
1429,24;13,39
1427,31;16,68
1425,38;19,44
1423,45;21,88
1421,52;23,81
1419,59;25,71
1417,66;27,42
1415,73;28,65
1413,80;29,60
1411,87;30,36
1409,94;30,81
1408,01;31,04
1406,08;31,00
1404,15;30,75
1402,22;30,30
1400,29;29,66
1398,36;28,54
1396,43;26,73
1394,50;23,90
1392,57;20,62
1390,64;17,52
1388,71;14,18
1386,78;10,02
1384,85;6,06
1382,92;3,21
1380,99;1,40
1379,06;0,48
1377,13;0,26
1375,20;0,57
1373,27;1,49
1371,34;2,53
1369,41;2,90
1367,48;2,67
1365,55;3,06
1363,62;5,08
1361,69;8,34
1359,76;11,35
1357,83;13,41
1355,90;14,62
1353,97;15,32
1352,04;15,97
1350,11;16,87
1348,18;17,98
1346,25;19,04
1344,32;19,87
1342,39;20,51
1340,46;21,32
1338,53;22,64
1336,60;24,36
1334,67;26,20
1332,74;27,95
1330,81;29,49
1328,88;30,69
1326,95;31,53
1325,02;32,01
1323,09;32,12
1321,16;31,88
1319,23;31,32
1317,30;30,58
1315,37;29,84
1313,44;29,17
1311,51;28,59
1309,58;28,12
1307,65;27,80
1305,72;27,68
1303,79;27,77
1301,86;28,13
1299,93;28,78
1298,00;29,69
1296,07;30,76
1294,14;31,86
1292,21;32,92
1290,28;33,88
1288,35;34,75
1286,42;35,51
1284,49;36,15
1282,56;36,64
1280,63;36,95
1278,70;37,10
1276,77;37,13
1274,84;37,18
1272,91;37,35
1270,98;37,69
1269,05;38,18
1267,12;38,71
1265,19;39,16
1263,26;39,52
1261,33;39,86
1259,40;40,24
1257,47;40,57
1255,54;40,74
1253,61;40,72
1251,68;40,56
1249,75;40,34
1247,82;40,11
1245,89;39,92
1243,96;39,75
1242,03;39,44
1240,10;38,75
1238,17;37,50
1236,24;35,82
1234,31;34,23
1232,38;33,32
1230,45;33,33
1228,52;34,04
1226,59;35,10
1224,66;36,28
1222,73;37,46
1220,80;38,56
1218,87;39,55
1216,94;40,42
1215,01;41,18
1213,08;41,88
1211,15;42,55
1209,22;43,15
1207,29;43,67
1205,36;44,07
1203,43;44,36
1201,50;44,50
1199,57;44,52
1197,64;44,38
1195,71;44,12
1193,78;43,74
1191,85;43,33
1189,92;43,13
1187,99;43,31
1186,06;43,58
1184,13;43,57
1182,20;43,14
1180,27;42,55
1178,34;42,00
1176,41;41,27
1174,48;40,09
1172,55;38,61
1170,62;37,36
1168,69;36,83
1166,76;36,91
1164,83;37,03
1162,90;36,87
1160,97;36,43
1159,04;35,91
1157,11;35,47
1155,18;35,23
1153,25;35,28
1151,32;35,62
1149,39;36,19
1147,46;36,95
1145,53;37,88
1143,60;38,96
1141,67;40,16
1139,74;41,40
1137,81;42,58
1135,88;43,62
1133,95;44,48
1132,02;45,16
1130,09;45,59
1128,16;45,81
1126,23;45,88
1124,30;45,82
1122,37;45,78
1120,44;45,98
1118,51;46,44
1116,58;46,95
1114,65;47,33
1112,72;47,59
1110,79;47,81
1108,86;48,04
1106,93;48,24
1105,00;48,33
1103,07;48,32
1101,14;48,20
1099,21;47,98
1097,28;47,68
1095,35;47,32
1093,42;46,92
1091,49;46,59
1089,56;46,36
1087,63;46,21
1085,70;46,05
1083,77;45,82
1081,84;45,52
1079,91;45,26
1077,98;45,18
1076,05;45,37
1074,12;45,81
1072,19;46,37
1070,26;46,86
1068,33;47,25
1066,40;47,54
1064,47;47,77
1062,54;47,99
1060,61;48,26
1058,68;48,63
1056,75;49,06
1054,82;49,48
1052,89;49,87
1050,96;50,19
1049,03;50,43
1047,10;50,59
1045,17;50,61
1043,24;50,50
1041,31;50,25
1039,38;49,86
1037,45;49,33
1035,52;48,70
1033,59;48,03
1031,66;47,51
1029,73;47,25
1027,80;47,36
1025,87;47,76
1023,94;48,29
1022,01;48,80
1020,08;49,20
1018,15;49,39
1016,22;49,34
1014,29;49,09
1012,36;48,80
1010,43;48,54
1008,50;48,26
1006,57;47,86
1004,64;47,35
1002,71;46,76
1000,78;46,19
998,85;45,72
996,92;45,38
994,99;45,16
993,06;44,98
991,13;44,79
989,20;44,47
987,27;43,98
985,34;43,27
983,41;42,35
981,48;41,30
979,55;40,26
977,62;39,31
975,69;38,51
973,76;37,85
971,83;37,32
969,90;36,93
967,97;36,75
966,04;36,86
964,11;37,27
962,18;37,83
960,25;38,29
958,32;38,52
956,39;38,52
954,46;38,53
952,53;38,80
950,60;39,42
948,67;40,31
946,74;41,33
944,81;42,41
942,88;43,50
940,95;44,50
939,02;45,38
937,09;46,13
935,16;46,82
933,23;47,51
931,30;48,20
929,37;48,82
927,44;49,33
925,51;49,65
923,58;49,81
921,65;49,83
919,72;49,92
917,79;50,47
915,86;51,61
913,93;52,90
912,00;53,94
910,07;54,66
908,14;55,18
906,21;55,58
904,28;55,83
902,35;55,85
900,42;55,61
898,49;55,16
896,56;54,61
894,63;54,15
892,70;53,82
890,77;53,71
888,84;54,07
886,91;55,05
884,98;56,24
883,05;57,16
881,12;57,65
879,19;57,80
877,26;57,71
875,33;57,52
873,40;57,39
871,47;57,42
869,54;57,51
867,61;57,61
865,68;57,67
863,75;57,70
861,82;57,66
859,89;57,58
857,96;57,46
856,03;57,37
854,10;57,34
852,17;57,35
850,24;57,34
848,31;57,40
846,38;57,62
844,45;57,97
842,52;58,45
840,59;59,02
838,66;59,53
836,73;59,91
834,80;60,18
832,87;60,30
830,94;60,28
829,01;60,13
827,08;59,87
825,15;59,48
823,22;59,04
821,29;58,69
819,36;58,59
817,43;58,73
815,50;59,10
813,57;59,62
811,64;60,23
809,71;60,81
807,78;61,34
805,85;61,79
803,92;62,23
801,99;62,67
800,06;63,10
798,13;63,43
796,20;63,65
794,27;63,71
792,34;63,55
790,41;63,12
788,48;62,40
786,55;61,42
784,62;60,20
782,69;58,86
780,76;57,46
778,83;56,00
776,90;54,44
774,97;52,84
773,04;51,41
771,11;50,46
769,18;50,20
767,25;50,63
765,32;51,37
763,39;52,05
761,46;52,39
759,53;52,26
757,60;51,64
755,67;50,69
753,74;49,59
751,81;48,48
749,88;47,36
747,95;46,10
746,02;44,70
744,09;43,15
742,16;41,33
740,23;39,27
738,30;37,33
736,37;35,70
734,44;34,08
732,51;32,04
730,58;29,32
728,65;26,02
726,72;22,47
724,79;19,11
722,86;16,95
720,93;17,51
719,00;21,71
717,07;28,32
715,14;35,43
713,21;41,97
711,28;47,89
709,35;53,12
707,42;57,63
705,49;61,32
703,56;64,29
701,63;66,60
699,70;68,42
697,77;69,88
695,84;71,08
693,91;71,91
691,98;72,45
690,05;72,87
688,12;73,27
686,19;73,60
684,26;73,83
682,33;73,94
680,40;73,91
678,47;73,72
676,54;73,37
674,61;72,94
672,68;72,51
670,75;72,17
668,82;71,95
666,89;71,84
664,96;71,55
663,03;71,24
661,10;71,03
659,17;70,84
657,24;70,69
655,31;70,77
653,38;71,25
651,45;72,12
649,52;73,16
647,59;74,12
645,66;74,85
643,73;75,22
641,80;75,26
639,87;75,13
637,94;75,00
636,01;75,09
634,08;75,21
632,15;75,11
630,22;74,78
628,29;74,48
626,36;74,52
624,43;74,86
622,50;75,23
620,57;75,49
618,64;75,64
616,71;75,71
614,78;75,74
612,85;75,75
610,92;75,77
608,99;75,77
607,06;75,76
605,13;75,74
603,20;75,74
601,27;75,76
599,34;75,77
597,41;75,75
595,48;75,74
593,55;75,73
591,62;75,65
589,69;75,50
587,76;75,40
585,83;75,38
583,90;75,45
581,97;75,53
580,04;75,54
578,11;75,50
576,18;75,41
574,25;75,19
572,32;74,91
570,39;74,60
568,46;74,20
566,53;73,78
564,60;73,48
562,67;73,34
560,74;73,32
558,81;73,34
556,88;73,33
554,95;73,30
553,02;73,25
551,09;73,27
549,16;73,39
547,23;73,60
545,30;73,83
543,37;74,07
541,44;74,26
539,51;74,42
537,58;74,58
535,65;74,79
533,72;75,03
531,79;75,32
529,86;75,61
527,93;75,93
526,00;76,20
524,07;76,35
522,14;76,56
520,21;76,80
518,28;76,95
516,35;76,96
514,42;76,94
512,49;76,94
510,56;76,98
508,63;77,04
506,70;77,05
504,77;77,01
502,84;77,06
500,91;76,99
