Created as New Dataset;Amostra 406 por Laboratório data terça-feira, setembro 24 2024
cm-1;%T
4000,00;62,92
3998,07;63,04
3996,14;63,17
3994,21;63,32
3992,28;63,48
3990,35;63,66
3988,42;63,85
3986,49;64,04
3984,56;64,23
3982,63;64,42
3980,70;64,60
3978,77;64,75
3976,84;64,90
3974,91;65,02
3972,98;65,13
3971,05;65,22
3969,12;65,30
3967,19;65,37
3965,26;65,44
3963,33;65,49
3961,40;65,55
3959,47;65,59
3957,54;65,64
3955,61;65,68
3953,68;65,72
3951,75;65,75
3949,82;65,79
3947,89;65,82
3945,96;65,84
3944,03;65,87
3942,10;65,88
3940,17;65,90
3938,24;65,91
3936,31;65,92
3934,38;65,93
3932,45;65,94
3930,52;65,94
3928,59;65,95
3926,66;65,96
3924,73;65,96
3922,80;65,97
3920,87;65,97
3918,94;65,98
3917,01;65,99
3915,08;65,99
3913,15;66,00
3911,22;66,01
3909,29;66,03
3907,36;66,05
3905,43;66,07
3903,50;66,10
3901,57;66,12
3899,64;66,14
3897,71;66,16
3895,78;66,19
3893,85;66,22
3891,92;66,24
3889,99;66,27
3888,06;66,29
3886,13;66,30
3884,20;66,34
3882,27;66,37
3880,34;66,39
3878,41;66,42
3876,48;66,45
3874,55;66,49
3872,62;66,53
3870,69;66,56
3868,76;66,59
3866,83;66,64
3864,90;66,67
3862,97;66,71
3861,04;66,74
3859,11;66,77
3857,18;66,80
3855,25;66,81
3853,32;66,83
3851,39;66,86
3849,46;66,87
3847,53;66,90
3845,60;66,93
3843,67;66,94
3841,74;66,96
3839,81;66,97
3837,88;66,99
3835,95;67,01
3834,02;67,04
3832,09;67,06
3830,16;67,08
3828,23;67,10
3826,30;67,11
3824,37;67,13
3822,44;67,15
3820,51;67,18
3818,58;67,23
3816,65;67,27
3814,72;67,34
3812,79;67,40
3810,86;67,46
3808,93;67,53
3807,00;67,59
3805,07;67,65
3803,14;67,71
3801,21;67,77
3799,28;67,84
3797,35;67,88
3795,42;67,93
3793,49;67,98
3791,56;68,01
3789,63;68,04
3787,70;68,07
3785,77;68,11
3783,84;68,16
3781,91;68,21
3779,98;68,27
3778,05;68,33
3776,12;68,39
3774,19;68,45
3772,26;68,51
3770,33;68,56
3768,40;68,60
3766,47;68,64
3764,54;68,68
3762,61;68,72
3760,68;68,76
3758,75;68,80
3756,82;68,84
3754,89;68,88
3752,96;68,92
3751,03;68,97
3749,10;69,01
3747,17;69,06
3745,24;69,09
3743,31;69,13
3741,38;69,15
3739,45;69,18
3737,52;69,22
3735,59;69,26
3733,66;69,30
3731,73;69,32
3729,80;69,34
3727,87;69,36
3725,94;69,38
3724,01;69,41
3722,08;69,44
3720,15;69,48
3718,22;69,50
3716,29;69,52
3714,36;69,53
3712,43;69,53
3710,50;69,52
3708,57;69,52
3706,64;69,53
3704,71;69,53
3702,78;69,52
3700,85;69,50
3698,92;69,47
3696,99;69,45
3695,06;69,43
3693,13;69,41
3691,20;69,38
3689,27;69,36
3687,34;69,33
3685,41;69,31
3683,48;69,28
3681,55;69,24
3679,62;69,19
3677,69;69,13
3675,76;69,07
3673,83;69,01
3671,90;68,95
3669,97;68,87
3668,04;68,78
3666,11;68,67
3664,18;68,57
3662,25;68,46
3660,32;68,34
3658,39;68,22
3656,46;68,10
3654,53;68,00
3652,60;67,89
3650,67;67,77
3648,74;67,66
3646,81;67,55
3644,88;67,45
3642,95;67,36
3641,02;67,26
3639,09;67,16
3637,16;67,05
3635,23;66,95
3633,30;66,85
3631,37;66,74
3629,44;66,59
3627,51;66,43
3625,58;66,25
3623,65;66,04
3621,72;65,82
3619,79;65,59
3617,86;65,41
3615,93;65,33
3614,00;65,36
3612,07;65,47
3610,14;65,62
3608,21;65,81
3606,28;66,02
3604,35;66,22
3602,42;66,42
3600,49;66,65
3598,56;66,89
3596,63;67,10
3594,70;67,29
3592,77;67,45
3590,84;67,56
3588,91;67,64
3586,98;67,70
3585,05;67,74
3583,12;67,76
3581,19;67,77
3579,26;67,77
3577,33;67,76
3575,40;67,74
3573,47;67,72
3571,54;67,69
3569,61;67,67
3567,68;67,66
3565,75;67,65
3563,82;67,63
3561,89;67,60
3559,96;67,56
3558,03;67,52
3556,10;67,48
3554,17;67,43
3552,24;67,38
3550,31;67,32
3548,38;67,25
3546,45;67,18
3544,52;67,11
3542,59;67,04
3540,66;66,97
3538,73;66,88
3536,80;66,79
3534,87;66,71
3532,94;66,63
3531,01;66,55
3529,08;66,46
3527,15;66,37
3525,22;66,27
3523,29;66,17
3521,36;66,08
3519,43;65,99
3517,50;65,89
3515,57;65,78
3513,64;65,68
3511,71;65,58
3509,78;65,48
3507,85;65,38
3505,92;65,28
3503,99;65,16
3502,06;65,05
3500,13;64,95
3498,20;64,85
3496,27;64,74
3494,34;64,64
3492,41;64,53
3490,48;64,42
3488,55;64,31
3486,62;64,20
3484,69;64,08
3482,76;63,97
3480,83;63,85
3478,90;63,74
3476,97;63,62
3475,04;63,51
3473,11;63,39
3471,18;63,27
3469,25;63,16
3467,32;63,06
3465,39;62,97
3463,46;62,88
3461,53;62,78
3459,60;62,69
3457,67;62,60
3455,74;62,50
3453,81;62,39
3451,88;62,28
3449,95;62,17
3448,02;62,03
3446,09;61,88
3444,16;61,72
3442,23;61,54
3440,30;61,38
3438,37;61,24
3436,44;61,14
3434,51;61,09
3432,58;61,07
3430,65;61,08
3428,72;61,08
3426,79;61,10
3424,86;61,12
3422,93;61,14
3421,00;61,16
3419,07;61,17
3417,14;61,17
3415,21;61,17
3413,28;61,17
3411,35;61,16
3409,42;61,15
3407,49;61,14
3405,56;61,13
3403,63;61,11
3401,70;61,09
3399,77;61,07
3397,84;61,06
3395,91;61,05
3393,98;61,02
3392,05;60,99
3390,12;60,98
3388,19;60,97
3386,26;60,96
3384,33;60,95
3382,40;60,93
3380,47;60,92
3378,54;60,92
3376,61;60,91
3374,68;60,91
3372,75;60,92
3370,82;60,91
3368,89;60,92
3366,96;60,93
3365,03;60,96
3363,10;60,98
3361,17;61,01
3359,24;61,03
3357,31;61,06
3355,38;61,09
3353,45;61,12
3351,52;61,14
3349,59;61,17
3347,66;61,22
3345,73;61,26
3343,80;61,29
3341,87;61,33
3339,94;61,38
3338,01;61,43
3336,08;61,49
3334,15;61,55
3332,22;61,61
3330,29;61,67
3328,36;61,73
3326,43;61,79
3324,50;61,86
3322,57;61,92
3320,64;61,99
3318,71;62,05
3316,78;62,11
3314,85;62,17
3312,92;62,22
3310,99;62,27
3309,06;62,31
3307,13;62,35
3305,20;62,39
3303,27;62,44
3301,34;62,49
3299,41;62,52
3297,48;62,55
3295,55;62,58
3293,62;62,60
3291,69;62,62
3289,76;62,65
3287,83;62,67
3285,90;62,68
3283,97;62,69
3282,04;62,70
3280,11;62,70
3278,18;62,70
3276,25;62,69
3274,32;62,68
3272,39;62,67
3270,46;62,65
3268,53;62,64
3266,60;62,62
3264,67;62,60
3262,74;62,57
3260,81;62,54
3258,88;62,50
3256,95;62,46
3255,02;62,41
3253,09;62,36
3251,16;62,30
3249,23;62,23
3247,30;62,16
3245,37;62,08
3243,44;61,99
3241,51;61,89
3239,58;61,78
3237,65;61,66
3235,72;61,53
3233,79;61,39
3231,86;61,24
3229,93;61,07
3228,00;60,89
3226,07;60,70
3224,14;60,49
3222,21;60,26
3220,28;60,03
3218,35;59,77
3216,42;59,51
3214,49;59,23
3212,56;58,94
3210,63;58,65
3208,70;58,34
3206,77;58,04
3204,84;57,73
3202,91;57,43
3200,98;57,13
3199,05;56,85
3197,12;56,57
3195,19;56,32
3193,26;56,08
3191,33;55,86
3189,40;55,66
3187,47;55,49
3185,54;55,33
3183,61;55,19
3181,68;55,07
3179,75;54,97
3177,82;54,89
3175,89;54,82
3173,96;54,77
3172,03;54,73
3170,10;54,70
3168,17;54,69
3166,24;54,68
3164,31;54,69
3162,38;54,70
3160,45;54,72
3158,52;54,74
3156,59;54,77
3154,66;54,79
3152,73;54,82
3150,80;54,85
3148,87;54,89
3146,94;54,92
3145,01;54,94
3143,08;54,97
3141,15;54,98
3139,22;55,00
3137,29;55,01
3135,36;55,01
3133,43;55,01
3131,50;55,01
3129,57;54,99
3127,64;54,97
3125,71;54,93
3123,78;54,90
3121,85;54,85
3119,92;54,79
3117,99;54,71
3116,06;54,63
3114,13;54,52
3112,20;54,39
3110,27;54,25
3108,34;54,08
3106,41;53,90
3104,48;53,70
3102,55;53,50
3100,62;53,29
3098,69;53,06
3096,76;52,83
3094,83;52,58
3092,90;52,31
3090,97;52,01
3089,04;51,67
3087,11;51,31
3085,18;50,92
3083,25;50,51
3081,32;50,08
3079,39;49,63
3077,46;49,15
3075,53;48,64
3073,60;48,11
3071,67;47,55
3069,74;46,97
3067,81;46,38
3065,88;45,76
3063,95;45,15
3062,02;44,55
3060,09;43,97
3058,16;43,40
3056,23;42,82
3054,30;42,23
3052,37;41,62
3050,44;40,99
3048,51;40,33
3046,58;39,63
3044,65;38,88
3042,72;38,10
3040,79;37,26
3038,86;36,38
3036,93;35,43
3035,00;34,43
3033,07;33,37
3031,14;32,26
3029,21;31,12
3027,28;29,97
3025,35;28,81
3023,42;27,62
3021,49;26,38
3019,56;25,07
3017,63;23,69
3015,70;22,24
3013,77;20,70
3011,84;19,08
3009,91;17,38
3007,98;15,60
3006,05;13,78
3004,12;11,94
3002,19;10,14
3000,26;8,41
2998,33;6,83
2996,40;5,41
2994,47;4,20
2992,54;3,19
2990,61;2,38
2988,68;1,73
2986,75;1,21
2984,82;0,80
2982,89;0,50
2980,96;0,29
2979,03;0,16
2977,10;0,09
2975,17;0,06
2973,24;0,05
2971,31;0,05
2969,38;0,04
2967,45;0,04
2965,52;0,04
2963,59;0,04
2961,66;0,04
2959,73;0,04
2957,80;0,03
2955,87;0,03
2953,94;0,03
2952,01;0,03
2950,08;0,03
2948,15;0,03
2946,22;0,03
2944,29;0,03
2942,36;0,03
2940,43;0,03
2938,50;0,03
2936,57;0,03
2934,64;0,03
2932,71;0,03
2930,78;0,03
2928,85;0,03
2926,92;0,03
2924,99;0,03
2923,06;0,03
2921,13;0,03
2919,20;0,03
2917,27;0,03
2915,34;0,03
2913,41;0,03
2911,48;0,03
2909,55;0,03
2907,62;0,03
2905,69;0,03
2903,76;0,03
2901,83;0,03
2899,90;0,03
2897,97;0,03
2896,04;0,03
2894,11;0,02
2892,18;0,02
2890,25;0,03
2888,32;0,03
2886,39;0,03
2884,46;0,03
2882,53;0,03
2880,60;0,03
2878,67;0,03
2876,74;0,03
2874,81;0,03
2872,88;0,03
2870,95;0,03
2869,02;0,03
2867,09;0,03
2865,16;0,03
2863,23;0,03
2861,30;0,04
2859,37;0,04
2857,44;0,04
2855,51;0,04
2853,58;0,04
2851,65;0,05
2849,72;0,05
2847,79;0,05
2845,86;0,05
2843,93;0,05
2842,00;0,05
2840,07;0,05
2838,14;0,06
2836,21;0,10
2834,28;0,20
2832,35;0,41
2830,42;0,76
2828,49;1,24
2826,56;1,83
2824,63;2,52
2822,70;3,28
2820,77;4,11
2818,84;4,99
2816,91;5,93
2814,98;6,92
2813,05;7,95
2811,12;9,04
2809,19;10,18
2807,26;11,37
2805,33;12,58
2803,40;13,81
2801,47;15,04
2799,54;16,27
2797,61;17,50
2795,68;18,73
2793,75;19,98
2791,82;21,24
2789,89;22,52
2787,96;23,84
2786,03;25,17
2784,10;26,50
2782,17;27,83
2780,24;29,13
2778,31;30,37
2776,38;31,54
2774,45;32,63
2772,52;33,61
2770,59;34,50
2768,66;35,28
2766,73;35,95
2764,80;36,49
2762,87;36,91
2760,94;37,24
2759,01;37,51
2757,08;37,75
2755,15;37,96
2753,22;38,12
2751,29;38,19
2749,36;38,16
2747,43;38,05
2745,50;37,82
2743,57;37,49
2741,64;37,05
2739,71;36,48
2737,78;35,78
2735,85;34,98
2733,92;34,10
2731,99;33,26
2730,06;32,65
2728,13;32,38
2726,20;32,41
2724,27;32,62
2722,34;32,96
2720,41;33,40
2718,48;33,97
2716,55;34,68
2714,62;35,52
2712,69;36,40
2710,76;37,21
2708,83;37,91
2706,90;38,45
2704,97;38,84
2703,04;39,10
2701,11;39,23
2699,18;39,24
2697,25;39,16
2695,32;39,00
2693,39;38,78
2691,46;38,53
2689,53;38,29
2687,60;38,08
2685,67;37,94
2683,74;37,87
2681,81;37,84
2679,88;37,84
2677,95;37,85
2676,02;37,86
2674,09;37,87
2672,16;37,92
2670,23;38,04
2668,30;38,28
2666,37;38,63
2664,44;39,06
2662,51;39,54
2660,58;40,03
2658,65;40,52
2656,72;41,00
2654,79;41,45
2652,86;41,85
2650,93;42,23
2649,00;42,56
2647,07;42,88
2645,14;43,17
2643,21;43,45
2641,28;43,71
2639,35;43,96
2637,42;44,20
2635,49;44,42
2633,56;44,63
2631,63;44,83
2629,70;45,01
2627,77;45,19
2625,84;45,37
2623,91;45,55
2621,98;45,73
2620,05;45,91
2618,12;46,10
2616,19;46,30
2614,26;46,51
2612,33;46,74
2610,40;46,98
2608,47;47,24
2606,54;47,52
2604,61;47,81
2602,68;48,13
2600,75;48,47
2598,82;48,85
2596,89;49,25
2594,96;49,67
2593,03;50,11
2591,10;50,57
2589,17;51,05
2587,24;51,55
2585,31;52,06
2583,38;52,59
2581,45;53,13
2579,52;53,68
2577,59;54,23
2575,66;54,78
2573,73;55,32
2571,80;55,86
2569,87;56,38
2567,94;56,88
2566,01;57,35
2564,08;57,80
2562,15;58,23
2560,22;58,62
2558,29;59,00
2556,36;59,35
2554,43;59,68
2552,50;59,99
2550,57;60,28
2548,64;60,55
2546,71;60,80
2544,78;61,05
2542,85;61,28
2540,92;61,51
2538,99;61,72
2537,06;61,92
2535,13;62,12
2533,20;62,32
2531,27;62,55
2529,34;62,80
2527,41;63,08
2525,48;63,38
2523,55;63,68
2521,62;63,99
2519,69;64,28
2517,76;64,58
2515,83;64,86
2513,90;65,14
2511,97;65,40
2510,04;65,65
2508,11;65,89
2506,18;66,12
2504,25;66,33
2502,32;66,53
2500,39;66,72
2498,46;66,90
2496,53;67,08
2494,60;67,24
2492,67;67,39
2490,74;67,53
2488,81;67,66
2486,88;67,78
2484,95;67,89
2483,02;67,98
2481,09;68,08
2479,16;68,16
2477,23;68,25
2475,30;68,33
2473,37;68,40
2471,44;68,46
2469,51;68,52
2467,58;68,57
2465,65;68,61
2463,72;68,65
2461,79;68,67
2459,86;68,70
2457,93;68,71
2456,00;68,72
2454,07;68,73
2452,14;68,73
2450,21;68,73
2448,28;68,72
2446,35;68,71
2444,42;68,69
2442,49;68,67
2440,56;68,63
2438,63;68,60
2436,70;68,55
2434,77;68,51
2432,84;68,47
2430,91;68,43
2428,98;68,38
2427,05;68,33
2425,12;68,28
2423,19;68,22
2421,26;68,17
2419,33;68,11
2417,40;68,05
2415,47;68,00
2413,54;67,95
2411,61;67,91
2409,68;67,87
2407,75;67,85
2405,82;67,83
2403,89;67,83
2401,96;67,84
2400,03;67,85
2398,10;67,88
2396,17;67,92
2394,24;67,97
2392,31;68,01
2390,38;68,04
2388,45;68,07
2386,52;68,08
2384,59;68,08
2382,66;68,07
2380,73;68,04
2378,80;68,01
2376,87;67,99
2374,94;68,00
2373,01;68,03
2371,08;68,07
2369,15;68,11
2367,22;68,11
2365,29;68,10
2363,36;68,08
2361,43;68,06
2359,50;68,05
2357,57;68,05
2355,64;68,05
2353,71;68,08
2351,78;68,16
2349,85;68,18
2347,92;68,02
2345,99;68,00
2344,06;68,14
2342,13;68,17
2340,20;68,18
2338,27;68,21
2336,34;68,24
2334,41;68,25
2332,48;68,27
2330,55;68,32
2328,62;68,38
2326,69;68,40
2324,76;68,41
2322,83;68,45
2320,90;68,49
2318,97;68,54
2317,04;68,61
2315,11;68,67
2313,18;68,76
2311,25;68,86
2309,32;68,97
2307,39;69,08
2305,46;69,19
2303,53;69,30
2301,60;69,40
2299,67;69,50
2297,74;69,59
2295,81;69,69
2293,88;69,79
2291,95;69,87
2290,02;69,96
2288,09;70,04
2286,16;70,12
2284,23;70,20
2282,30;70,29
2280,37;70,40
2278,44;70,53
2276,51;70,65
2274,58;70,77
2272,65;70,87
2270,72;70,96
2268,79;71,04
2266,86;71,13
2264,93;71,22
2263,00;71,30
2261,07;71,39
2259,14;71,47
2257,21;71,55
2255,28;71,63
2253,35;71,71
2251,42;71,78
2249,49;71,85
2247,56;71,92
2245,63;71,99
2243,70;72,04
2241,77;72,09
2239,84;72,14
2237,91;72,18
2235,98;72,21
2234,05;72,24
2232,12;72,26
2230,19;72,29
2228,26;72,30
2226,33;72,32
2224,40;72,34
2222,47;72,35
2220,54;72,37
2218,61;72,38
2216,68;72,39
2214,75;72,39
2212,82;72,38
2210,89;72,38
2208,96;72,37
2207,03;72,37
2205,10;72,36
2203,17;72,36
2201,24;72,35
2199,31;72,34
2197,38;72,33
2195,45;72,31
2193,52;72,29
2191,59;72,26
2189,66;72,24
2187,73;72,23
2185,80;72,22
2183,87;72,23
2181,94;72,24
2180,01;72,22
2178,08;72,19
2176,15;72,28
2174,22;72,40
2172,29;72,45
2170,36;72,49
2168,43;72,53
2166,50;72,57
2164,57;72,61
2162,64;72,65
2160,71;72,68
2158,78;72,71
2156,85;72,74
2154,92;72,79
2152,99;72,84
2151,06;72,91
2149,13;73,01
2147,20;73,14
2145,27;73,31
2143,34;73,48
2141,41;73,65
2139,48;73,80
2137,55;73,94
2135,62;74,06
2133,69;74,15
2131,76;74,23
2129,83;74,30
2127,90;74,36
2125,97;74,42
2124,04;74,47
2122,11;74,52
2120,18;74,55
2118,25;74,59
2116,32;74,62
2114,39;74,65
2112,46;74,68
2110,53;74,72
2108,60;74,74
2106,67;74,77
2104,74;74,79
2102,81;74,82
2100,88;74,84
2098,95;74,86
2097,02;74,88
2095,09;74,89
2093,16;74,90
2091,23;74,90
2089,30;74,91
2087,37;74,91
2085,44;74,91
2083,51;74,90
2081,58;74,90
2079,65;74,89
2077,72;74,88
2075,79;74,85
2073,86;74,84
2071,93;74,81
2070,00;74,78
2068,07;74,75
2066,14;74,72
2064,21;74,68
2062,28;74,64
2060,35;74,59
2058,42;74,54
2056,49;74,48
2054,56;74,42
2052,63;74,35
2050,70;74,28
2048,77;74,21
2046,84;74,13
2044,91;74,05
2042,98;73,98
2041,05;73,90
2039,12;73,84
2037,19;73,78
2035,26;73,74
2033,33;73,72
2031,40;73,71
2029,47;73,73
2027,54;73,77
2025,61;73,84
2023,68;73,95
2021,75;74,12
2019,82;74,32
2017,89;74,58
2015,96;74,86
2014,03;75,13
2012,10;75,38
2010,17;75,61
2008,24;75,79
2006,31;75,95
2004,38;76,08
2002,45;76,19
2000,52;76,27
1998,59;76,36
1996,66;76,42
1994,73;76,48
1992,80;76,54
1990,87;76,59
1988,94;76,63
1987,01;76,66
1985,08;76,69
1983,15;76,72
1981,22;76,74
1979,29;76,76
1977,36;76,79
1975,43;76,80
1973,50;76,81
1971,57;76,82
1969,64;76,84
1967,71;76,84
1965,78;76,85
1963,85;76,84
1961,92;76,84
1959,99;76,82
1958,06;76,81
1956,13;76,79
1954,20;76,78
1952,27;76,76
1950,34;76,75
1948,41;76,73
1946,48;76,71
1944,55;76,68
1942,62;76,64
1940,69;76,57
1938,76;76,52
1936,83;76,49
1934,90;76,49
1932,97;76,48
1931,04;76,47
1929,11;76,45
1927,18;76,42
1925,25;76,41
1923,32;76,39
1921,39;76,35
1919,46;76,31
1917,53;76,28
1915,60;76,24
1913,67;76,22
1911,74;76,19
1909,81;76,15
1907,88;76,11
1905,95;76,06
1904,02;76,01
1902,09;75,98
1900,16;75,94
1898,23;75,91
1896,30;75,87
1894,37;75,84
1892,44;75,80
1890,51;75,77
1888,58;75,72
1886,65;75,69
1884,72;75,67
1882,79;75,66
1880,86;75,66
1878,93;75,69
1877,00;75,72
1875,07;75,76
1873,14;75,82
1871,21;75,90
1869,28;75,99
1867,35;76,04
1865,42;76,08
1863,49;76,12
1861,56;76,17
1859,63;76,21
1857,70;76,26
1855,77;76,28
1853,84;76,31
1851,91;76,32
1849,98;76,35
1848,05;76,36
1846,12;76,37
1844,19;76,38
1842,26;76,39
1840,33;76,39
1838,40;76,38
1836,47;76,36
1834,54;76,35
1832,61;76,37
1830,68;76,37
1828,75;76,34
1826,82;76,32
1824,89;76,30
1822,96;76,26
1821,03;76,22
1819,10;76,17
1817,17;76,14
1815,24;76,10
1813,31;76,08
1811,38;76,03
1809,45;75,98
1807,52;75,91
1805,59;75,85
1803,66;75,80
1801,73;75,78
1799,80;75,70
1797,87;75,62
1795,94;75,54
1794,01;75,47
1792,08;75,35
1790,15;75,20
1788,22;74,97
1786,29;74,71
1784,36;74,36
1782,43;73,96
1780,50;73,54
1778,57;73,23
1776,64;73,12
1774,71;73,19
1772,78;73,35
1770,85;73,54
1768,92;73,75
1766,99;73,93
1765,06;74,06
1763,13;74,15
1761,20;74,22
1759,27;74,22
1757,34;74,18
1755,41;74,05
1753,48;73,92
1751,55;73,79
1749,62;73,63
1747,69;73,38
1745,76;73,13
1743,83;72,83
1741,90;72,48
1739,97;72,01
1738,04;71,52
1736,11;71,08
1734,18;70,66
1732,25;70,28
1730,32;70,01
1728,39;69,70
1726,46;69,37
1724,53;68,89
1722,60;68,10
1720,67;66,95
1718,74;65,08
1716,81;62,23
1714,88;59,37
1712,95;57,15
1711,02;55,83
1709,09;55,30
1707,16;55,36
1705,23;55,76
1703,30;56,34
1701,37;57,11
1699,44;58,22
1697,51;59,10
1695,58;60,12
1693,65;61,12
1691,72;61,92
1689,79;62,71
1687,86;63,40
1685,93;64,03
1684,00;64,73
1682,07;65,29
1680,14;65,63
1678,21;65,88
1676,28;66,07
1674,35;66,24
1672,42;66,32
1670,49;66,31
1668,56;66,23
1666,63;66,17
1664,70;66,09
1662,77;65,98
1660,84;65,87
1658,91;65,76
1656,98;65,62
1655,05;65,48
1653,12;65,32
1651,19;65,22
1649,26;65,08
1647,33;64,74
1645,40;64,33
1643,47;63,91
1641,54;63,46
1639,61;62,96
1637,68;62,45
1635,75;61,77
1633,82;61,12
1631,89;60,61
1629,96;60,15
1628,03;59,61
1626,10;59,03
1624,17;58,25
1622,24;57,25
1620,31;56,24
1618,38;55,29
1616,45;54,25
1614,52;53,32
1612,59;52,37
1610,66;51,12
1608,73;49,77
1606,80;48,83
1604,87;48,45
1602,94;48,30
1601,01;48,44
1599,08;49,25
1597,15;50,85
1595,22;52,67
1593,29;54,16
1591,36;55,05
1589,43;55,43
1587,50;55,39
1585,57;55,09
1583,64;54,57
1581,71;53,95
1579,78;53,25
1577,85;52,58
1575,92;51,78
1573,99;51,05
1572,06;50,40
1570,13;49,64
1568,20;48,80
1566,27;48,12
1564,34;47,45
1562,41;46,95
1560,48;46,64
1558,55;46,36
1556,62;46,27
1554,69;46,36
1552,76;46,60
1550,83;46,93
1548,90;47,34
1546,97;47,72
1545,04;48,10
1543,11;48,39
1541,18;48,52
1539,25;48,47
1537,32;48,36
1535,39;48,09
1533,46;47,64
1531,53;46,97
1529,60;46,22
1527,67;45,15
1525,74;43,74
1523,81;41,97
1521,88;39,59
1519,95;36,63
1518,02;34,30
1516,09;32,68
1514,16;32,55
1512,23;33,69
1510,30;35,22
1508,37;36,26
1506,44;36,57
1504,51;36,09
1502,58;35,29
1500,65;34,30
1498,72;33,23
1496,79;31,90
1494,86;30,09
1492,93;27,99
1491,00;25,33
1489,07;22,26
1487,14;19,45
1485,21;16,96
1483,28;14,49
1481,35;11,81
1479,42;9,06
1477,49;6,48
1475,56;4,05
1473,63;2,09
1471,70;0,71
1469,77;0,16
1467,84;0,03
1465,91;0,02
1463,98;0,02
1462,05;0,02
1460,12;0,02
1458,19;0,02
1456,26;0,02
1454,33;0,03
1452,40;0,04
1450,47;0,10
1448,54;0,16
1446,61;0,29
1444,68;0,47
1442,75;0,79
1440,82;1,26
1438,89;1,91
1436,96;3,05
1435,03;4,87
1433,10;7,22
1431,17;10,42
1429,24;14,22
1427,31;17,76
1425,38;20,66
1423,45;23,06
1421,52;24,75
1419,59;26,06
1417,66;27,00
1415,73;27,51
1413,80;27,74
1411,87;27,88
1409,94;27,88
1408,01;27,85
1406,08;27,74
1404,15;27,59
1402,22;27,29
1400,29;26,78
1398,36;25,78
1396,43;24,21
1394,50;21,78
1392,57;18,97
1390,64;16,31
1388,71;13,45
1386,78;9,87
1384,85;6,34
1382,92;3,56
1380,99;1,63
1379,06;0,58
1377,13;0,32
1375,20;0,66
1373,27;1,67
1371,34;2,79
1369,41;3,20
1367,48;2,95
1365,55;3,38
1363,62;5,53
1361,69;8,97
1359,76;12,10
1357,83;14,17
1355,90;15,33
1353,97;15,99
1352,04;16,62
1350,11;17,50
1348,18;18,60
1346,25;19,64
1344,32;20,41
1342,39;20,95
1340,46;21,72
1338,53;23,06
1336,60;24,82
1334,67;26,64
1332,74;28,34
1330,81;29,81
1328,88;30,96
1326,95;31,79
1325,02;32,30
1323,09;32,50
1321,16;32,39
1319,23;32,00
1317,30;31,42
1315,37;30,75
1313,44;30,06
1311,51;29,42
1309,58;28,89
1307,65;28,53
1305,72;28,37
1303,79;28,43
1301,86;28,75
1299,93;29,37
1298,00;30,26
1296,07;31,34
1294,14;32,46
1292,21;33,56
1290,28;34,59
1288,35;35,54
1286,42;36,42
1284,49;37,20
1282,56;37,85
1280,63;38,35
1278,70;38,70
1276,77;38,92
1274,84;39,11
1272,91;39,35
1270,98;39,71
1269,05;40,18
1267,12;40,67
1265,19;41,08
1263,26;41,38
1261,33;41,63
1259,40;41,88
1257,47;42,03
1255,54;41,96
1253,61;41,66
1251,68;41,26
1249,75;40,88
1247,82;40,64
1245,89;40,60
1243,96;40,75
1242,03;40,91
1240,10;40,74
1238,17;39,99
1236,24;38,69
1234,31;37,34
1232,38;36,56
1230,45;36,63
1228,52;37,40
1226,59;38,55
1224,66;39,82
1222,73;41,10
1220,80;42,31
1218,87;43,44
1216,94;44,48
1215,01;45,44
1213,08;46,31
1211,15;47,07
1209,22;47,73
1207,29;48,32
1205,36;48,82
1203,43;49,22
1201,50;49,49
1199,57;49,61
1197,64;49,55
1195,71;49,33
1193,78;48,94
1191,85;48,52
1189,92;48,37
1187,99;48,68
1186,06;49,13
1184,13;49,32
1182,20;49,15
1180,27;48,74
1178,34;48,16
1176,41;47,23
1174,48;45,91
1172,55;44,44
1170,62;43,37
1168,69;43,14
1166,76;43,58
1164,83;44,03
1162,90;44,08
1160,97;43,73
1159,04;43,16
1157,11;42,58
1155,18;42,24
1153,25;42,29
1151,32;42,74
1149,39;43,45
1147,46;44,40
1145,53;45,53
1143,60;46,78
1141,67;48,08
1139,74;49,37
1137,81;50,58
1135,88;51,67
1133,95;52,57
1132,02;53,22
1130,09;53,58
1128,16;53,72
1126,23;53,79
1124,30;53,88
1122,37;53,96
1120,44;54,12
1118,51;54,34
1116,58;54,55
1114,65;54,70
1112,72;54,84
1110,79;55,08
1108,86;55,43
1106,93;55,81
1105,00;56,08
1103,07;56,20
1101,14;56,16
1099,21;55,97
1097,28;55,63
1095,35;55,18
1093,42;54,69
1091,49;54,29
1089,56;54,05
1087,63;53,91
1085,70;53,72
1083,77;53,44
1081,84;53,06
1079,91;52,72
1077,98;52,59
1076,05;52,74
1074,12;53,06
1072,19;53,48
1070,26;53,92
1068,33;54,29
1066,40;54,54
1064,47;54,76
1062,54;54,97
1060,61;55,16
1058,68;55,38
1056,75;55,57
1054,82;55,71
1052,89;55,80
1050,96;55,85
1049,03;55,85
1047,10;55,76
1045,17;55,57
1043,24;55,29
1041,31;54,91
1039,38;54,42
1037,45;53,79
1035,52;52,99
1033,59;52,09
1031,66;51,29
1029,73;50,88
1027,80;51,02
1025,87;51,60
1023,94;52,37
1022,01;53,04
1020,08;53,41
1018,15;53,38
1016,22;53,01
1014,29;52,38
1012,36;51,71
1010,43;51,07
1008,50;50,41
1006,57;49,59
1004,64;48,57
1002,71;47,40
1000,78;46,27
998,85;45,39
996,92;44,86
994,99;44,59
993,06;44,44
991,13;44,30
989,20;44,08
987,27;43,63
985,34;42,88
983,41;41,83
981,48;40,66
979,55;39,58
977,62;38,69
975,69;37,99
973,76;37,49
971,83;37,23
969,90;37,24
967,97;37,51
966,04;38,05
964,11;38,82
962,18;39,64
960,25;40,19
958,32;40,23
956,39;39,81
954,46;39,30
952,53;39,19
950,60;39,67
948,67;40,61
946,74;41,79
944,81;43,08
942,88;44,37
940,95;45,58
939,02;46,64
937,09;47,54
935,16;48,35
933,23;49,10
931,30;49,79
929,37;50,38
927,44;50,85
925,51;51,18
923,58;51,37
921,65;51,41
919,72;51,49
917,79;51,97
915,86;52,97
913,93;54,11
912,00;55,01
910,07;55,61
908,14;56,04
906,21;56,40
904,28;56,66
902,35;56,72
900,42;56,55
898,49;56,17
896,56;55,67
894,63;55,23
892,70;54,92
890,77;54,83
888,84;55,22
886,91;56,15
884,98;57,21
883,05;57,99
881,12;58,37
879,19;58,49
877,26;58,49
875,33;58,40
873,40;58,27
871,47;58,17
869,54;58,14
867,61;58,20
865,68;58,27
863,75;58,30
861,82;58,24
859,89;58,07
857,96;57,83
856,03;57,54
854,10;57,27
852,17;57,06
850,24;56,89
848,31;56,82
846,38;56,84
844,45;56,86
842,52;56,93
840,59;57,09
838,66;57,24
836,73;57,33
834,80;57,37
832,87;57,37
830,94;57,38
829,01;57,44
827,08;57,43
825,15;57,21
823,22;56,75
821,29;56,27
819,36;55,99
817,43;55,91
815,50;56,00
813,57;56,30
811,64;56,84
809,71;57,51
807,78;58,10
805,85;58,58
803,92;59,08
801,99;59,69
800,06;60,31
798,13;60,83
796,20;61,21
794,27;61,44
792,34;61,44
790,41;61,17
788,48;60,60
786,55;59,70
784,62;58,54
782,69;57,21
780,76;55,81
778,83;54,33
776,90;52,72
774,97;51,04
773,04;49,55
771,11;48,57
769,18;48,20
767,25;48,29
765,32;48,65
763,39;49,09
761,46;49,38
759,53;49,36
757,60;48,96
755,67;48,18
753,74;47,09
751,81;45,81
749,88;44,53
747,95;43,45
746,02;42,53
744,09;41,48
742,16;39,98
740,23;38,13
738,30;36,39
736,37;34,92
734,44;33,44
732,51;31,55
730,58;29,02
728,65;25,91
726,72;22,51
724,79;19,24
722,86;17,11
720,93;17,66
719,00;21,79
717,07;28,26
715,14;35,16
713,21;41,47
711,28;47,13
709,35;52,12
707,42;56,34
705,49;59,71
703,56;62,21
701,63;63,81
699,70;64,93
697,77;66,42
695,84;68,47
693,91;70,30
691,98;71,44
690,05;72,13
688,12;72,65
686,19;72,96
684,26;72,96
682,33;72,64
680,40;72,02
678,47;71,23
676,54;70,37
674,61;69,57
672,68;68,92
670,75;68,49
668,82;68,31
666,89;68,21
664,96;67,83
663,03;67,42
661,10;67,15
659,17;66,82
657,24;66,54
655,31;66,52
653,38;67,10
651,45;68,26
649,52;69,84
647,59;71,38
645,66;72,63
643,73;73,36
641,80;73,63
639,87;73,63
637,94;73,75
636,01;74,24
634,08;74,95
632,15;75,60
630,22;76,06
628,29;76,34
626,36;76,51
624,43;76,60
622,50;76,61
620,57;76,57
618,64;76,49
616,71;76,43
614,78;76,36
612,85;76,29
610,92;76,17
608,99;76,07
607,06;75,94
605,13;75,80
603,20;75,59
601,27;75,39
599,34;75,19
597,41;74,96
595,48;74,70
593,55;74,47
591,62;74,21
589,69;73,95
587,76;73,71
585,83;73,61
583,90;73,65
581,97;73,75
580,04;73,81
578,11;73,83
576,18;73,86
574,25;73,86
572,32;73,74
570,39;73,49
568,46;73,13
566,53;72,72
564,60;72,38
562,67;72,13
560,74;72,04
558,81;72,01
556,88;72,01
554,95;71,95
553,02;71,90
551,09;71,84
549,16;71,89
547,23;72,04
545,30;72,32
543,37;72,56
541,44;72,74
539,51;72,82
537,58;72,94
535,65;73,10
533,72;73,33
531,79;73,55
529,86;73,80
527,93;74,05
526,00;74,31
524,07;74,53
522,14;74,77
520,21;75,01
518,28;75,24
516,35;75,44
514,42;75,56
512,49;75,65
510,56;75,69
508,63;75,75
506,70;75,73
504,77;75,70
502,84;75,63
500,91;75,62
