Created as New Dataset;Amostra 410 por Laboratório data terça-feira, setembro 24 2024
cm-1;%T
4000,00;59,64
3998,07;59,77
3996,14;59,90
3994,21;60,05
3992,28;60,22
3990,35;60,40
3988,42;60,58
3986,49;60,77
3984,56;60,96
3982,63;61,15
3980,70;61,34
3978,77;61,51
3976,84;61,66
3974,91;61,80
3972,98;61,93
3971,05;62,04
3969,12;62,14
3967,19;62,23
3965,26;62,31
3963,33;62,39
3961,40;62,46
3959,47;62,52
3957,54;62,58
3955,61;62,63
3953,68;62,68
3951,75;62,72
3949,82;62,77
3947,89;62,81
3945,96;62,84
3944,03;62,88
3942,10;62,90
3940,17;62,91
3938,24;62,93
3936,31;62,93
3934,38;62,95
3932,45;62,96
3930,52;62,98
3928,59;62,99
3926,66;63,00
3924,73;63,00
3922,80;63,01
3920,87;63,03
3918,94;63,04
3917,01;63,05
3915,08;63,06
3913,15;63,06
3911,22;63,06
3909,29;63,07
3907,36;63,08
3905,43;63,12
3903,50;63,17
3901,57;63,22
3899,64;63,26
3897,71;63,27
3895,78;63,29
3893,85;63,30
3891,92;63,31
3889,99;63,33
3888,06;63,38
3886,13;63,41
3884,20;63,43
3882,27;63,47
3880,34;63,50
3878,41;63,51
3876,48;63,54
3874,55;63,57
3872,62;63,61
3870,69;63,68
3868,76;63,72
3866,83;63,78
3864,90;63,83
3862,97;63,85
3861,04;63,88
3859,11;63,89
3857,18;63,91
3855,25;63,95
3853,32;64,03
3851,39;64,09
3849,46;64,11
3847,53;64,09
3845,60;64,07
3843,67;64,07
3841,74;64,08
3839,81;64,13
3837,88;64,17
3835,95;64,21
3834,02;64,25
3832,09;64,27
3830,16;64,26
3828,23;64,26
3826,30;64,26
3824,37;64,28
3822,44;64,33
3820,51;64,38
3818,58;64,46
3816,65;64,55
3814,72;64,60
3812,79;64,67
3810,86;64,72
3808,93;64,78
3807,00;64,86
3805,07;64,94
3803,14;65,05
3801,21;65,13
3799,28;65,21
3797,35;65,28
3795,42;65,31
3793,49;65,34
3791,56;65,37
3789,63;65,40
3787,70;65,45
3785,77;65,50
3783,84;65,57
3781,91;65,65
3779,98;65,74
3778,05;65,83
3776,12;65,92
3774,19;65,99
3772,26;66,07
3770,33;66,14
3768,40;66,21
3766,47;66,29
3764,54;66,34
3762,61;66,39
3760,68;66,45
3758,75;66,50
3756,82;66,56
3754,89;66,63
3752,96;66,71
3751,03;66,80
3749,10;66,89
3747,17;66,97
3745,24;67,04
3743,31;67,05
3741,38;67,08
3739,45;67,10
3737,52;67,13
3735,59;67,16
3733,66;67,20
3731,73;67,24
3729,80;67,26
3727,87;67,28
3725,94;67,29
3724,01;67,33
3722,08;67,38
3720,15;67,42
3718,22;67,45
3716,29;67,48
3714,36;67,52
3712,43;67,55
3710,50;67,58
3708,57;67,61
3706,64;67,60
3704,71;67,60
3702,78;67,58
3700,85;67,57
3698,92;67,56
3696,99;67,56
3695,06;67,54
3693,13;67,55
3691,20;67,56
3689,27;67,58
3687,34;67,60
3685,41;67,62
3683,48;67,60
3681,55;67,56
3679,62;67,54
3677,69;67,54
3675,76;67,54
3673,83;67,53
3671,90;67,55
3669,97;67,47
3668,04;67,37
3666,11;67,25
3664,18;67,11
3662,25;66,96
3660,32;66,80
3658,39;66,64
3656,46;66,45
3654,53;66,24
3652,60;66,07
3650,67;65,90
3648,74;65,76
3646,81;65,65
3644,88;65,54
3642,95;65,46
3641,02;65,38
3639,09;65,30
3637,16;65,21
3635,23;65,12
3633,30;65,01
3631,37;64,91
3629,44;64,79
3627,51;64,64
3625,58;64,51
3623,65;64,36
3621,72;64,22
3619,79;64,07
3617,86;63,94
3615,93;63,83
3614,00;63,72
3612,07;63,61
3610,14;63,51
3608,21;63,42
3606,28;63,36
3604,35;63,33
3602,42;63,35
3600,49;63,42
3598,56;63,51
3596,63;63,61
3594,70;63,69
3592,77;63,73
3590,84;63,74
3588,91;63,73
3586,98;63,66
3585,05;63,59
3583,12;63,49
3581,19;63,38
3579,26;63,25
3577,33;63,12
3575,40;62,99
3573,47;62,85
3571,54;62,73
3569,61;62,62
3567,68;62,51
3565,75;62,38
3563,82;62,25
3561,89;62,10
3559,96;61,95
3558,03;61,80
3556,10;61,65
3554,17;61,50
3552,24;61,34
3550,31;61,19
3548,38;61,04
3546,45;60,87
3544,52;60,70
3542,59;60,54
3540,66;60,37
3538,73;60,20
3536,80;60,02
3534,87;59,85
3532,94;59,69
3531,01;59,53
3529,08;59,37
3527,15;59,20
3525,22;59,03
3523,29;58,86
3521,36;58,69
3519,43;58,53
3517,50;58,35
3515,57;58,18
3513,64;58,02
3511,71;57,86
3509,78;57,71
3507,85;57,55
3505,92;57,39
3503,99;57,23
3502,06;57,07
3500,13;56,92
3498,20;56,77
3496,27;56,61
3494,34;56,46
3492,41;56,31
3490,48;56,16
3488,55;56,01
3486,62;55,87
3484,69;55,73
3482,76;55,59
3480,83;55,45
3478,90;55,32
3476,97;55,19
3475,04;55,06
3473,11;54,94
3471,18;54,81
3469,25;54,70
3467,32;54,59
3465,39;54,50
3463,46;54,41
3461,53;54,31
3459,60;54,22
3457,67;54,14
3455,74;54,06
3453,81;53,98
3451,88;53,90
3449,95;53,83
3448,02;53,77
3446,09;53,70
3444,16;53,64
3442,23;53,57
3440,30;53,51
3438,37;53,45
3436,44;53,41
3434,51;53,38
3432,58;53,36
3430,65;53,35
3428,72;53,33
3426,79;53,32
3424,86;53,32
3422,93;53,31
3421,00;53,29
3419,07;53,27
3417,14;53,26
3415,21;53,24
3413,28;53,22
3411,35;53,20
3409,42;53,18
3407,49;53,15
3405,56;53,14
3403,63;53,12
3401,70;53,10
3399,77;53,08
3397,84;53,07
3395,91;53,06
3393,98;53,04
3392,05;53,02
3390,12;53,01
3388,19;53,01
3386,26;53,00
3384,33;53,00
3382,40;53,00
3380,47;53,00
3378,54;53,00
3376,61;53,02
3374,68;53,03
3372,75;53,04
3370,82;53,06
3368,89;53,08
3366,96;53,12
3365,03;53,15
3363,10;53,19
3361,17;53,23
3359,24;53,27
3357,31;53,31
3355,38;53,35
3353,45;53,39
3351,52;53,43
3349,59;53,48
3347,66;53,53
3345,73;53,59
3343,80;53,64
3341,87;53,70
3339,94;53,77
3338,01;53,84
3336,08;53,92
3334,15;54,00
3332,22;54,08
3330,29;54,16
3328,36;54,24
3326,43;54,33
3324,50;54,41
3322,57;54,50
3320,64;54,59
3318,71;54,67
3316,78;54,75
3314,85;54,83
3312,92;54,91
3310,99;54,97
3309,06;55,04
3307,13;55,09
3305,20;55,16
3303,27;55,23
3301,34;55,29
3299,41;55,35
3297,48;55,39
3295,55;55,44
3293,62;55,49
3291,69;55,53
3289,76;55,58
3287,83;55,62
3285,90;55,65
3283,97;55,68
3282,04;55,71
3280,11;55,74
3278,18;55,76
3276,25;55,78
3274,32;55,79
3272,39;55,80
3270,46;55,81
3268,53;55,82
3266,60;55,83
3264,67;55,83
3262,74;55,82
3260,81;55,81
3258,88;55,80
3256,95;55,78
3255,02;55,76
3253,09;55,73
3251,16;55,69
3249,23;55,65
3247,30;55,59
3245,37;55,53
3243,44;55,47
3241,51;55,39
3239,58;55,30
3237,65;55,20
3235,72;55,09
3233,79;54,96
3231,86;54,83
3229,93;54,68
3228,00;54,52
3226,07;54,34
3224,14;54,14
3222,21;53,93
3220,28;53,71
3218,35;53,47
3216,42;53,22
3214,49;52,96
3212,56;52,68
3210,63;52,40
3208,70;52,11
3206,77;51,81
3204,84;51,52
3202,91;51,22
3200,98;50,94
3199,05;50,66
3197,12;50,40
3195,19;50,15
3193,26;49,92
3191,33;49,70
3189,40;49,51
3187,47;49,34
3185,54;49,19
3183,61;49,06
3181,68;48,95
3179,75;48,86
3177,82;48,79
3175,89;48,74
3173,96;48,71
3172,03;48,69
3170,10;48,68
3168,17;48,70
3166,24;48,72
3164,31;48,76
3162,38;48,80
3160,45;48,85
3158,52;48,91
3156,59;48,96
3154,66;49,02
3152,73;49,08
3150,80;49,15
3148,87;49,22
3146,94;49,28
3145,01;49,34
3143,08;49,39
3141,15;49,44
3139,22;49,48
3137,29;49,52
3135,36;49,54
3133,43;49,56
3131,50;49,56
3129,57;49,55
3127,64;49,53
3125,71;49,50
3123,78;49,45
3121,85;49,39
3119,92;49,31
3117,99;49,23
3116,06;49,14
3114,13;49,02
3112,20;48,88
3110,27;48,72
3108,34;48,53
3106,41;48,33
3104,48;48,11
3102,55;47,90
3100,62;47,67
3098,69;47,42
3096,76;47,14
3094,83;46,83
3092,90;46,48
3090,97;46,08
3089,04;45,63
3087,11;45,14
3085,18;44,62
3083,25;44,06
3081,32;43,45
3079,39;42,79
3077,46;42,10
3075,53;41,39
3073,60;40,68
3071,67;39,98
3069,74;39,28
3067,81;38,58
3065,88;37,89
3063,95;37,21
3062,02;36,58
3060,09;35,99
3058,16;35,41
3056,23;34,81
3054,30;34,18
3052,37;33,52
3050,44;32,82
3048,51;32,09
3046,58;31,33
3044,65;30,55
3042,72;29,77
3040,79;28,97
3038,86;28,16
3036,93;27,31
3035,00;26,42
3033,07;25,46
3031,14;24,44
3029,21;23,36
3027,28;22,24
3025,35;21,09
3023,42;19,90
3021,49;18,68
3019,56;17,43
3017,63;16,18
3015,70;14,93
3013,77;13,68
3011,84;12,41
3009,91;11,13
3007,98;9,83
3006,05;8,54
3004,12;7,27
3002,19;6,08
3000,26;4,97
2998,33;3,97
2996,40;3,11
2994,47;2,37
2992,54;1,77
2990,61;1,28
2988,68;0,90
2986,75;0,60
2984,82;0,39
2982,89;0,23
2980,96;0,14
2979,03;0,08
2977,10;0,06
2975,17;0,04
2973,24;0,04
2971,31;0,04
2969,38;0,04
2967,45;0,04
2965,52;0,04
2963,59;0,04
2961,66;0,04
2959,73;0,03
2957,80;0,03
2955,87;0,03
2953,94;0,03
2952,01;0,03
2950,08;0,03
2948,15;0,03
2946,22;0,03
2944,29;0,03
2942,36;0,03
2940,43;0,03
2938,50;0,03
2936,57;0,03
2934,64;0,03
2932,71;0,03
2930,78;0,03
2928,85;0,03
2926,92;0,03
2924,99;0,03
2923,06;0,03
2921,13;0,03
2919,20;0,03
2917,27;0,03
2915,34;0,03
2913,41;0,03
2911,48;0,03
2909,55;0,03
2907,62;0,03
2905,69;0,03
2903,76;0,03
2901,83;0,03
2899,90;0,03
2897,97;0,03
2896,04;0,03
2894,11;0,03
2892,18;0,03
2890,25;0,03
2888,32;0,03
2886,39;0,03
2884,46;0,03
2882,53;0,03
2880,60;0,03
2878,67;0,03
2876,74;0,03
2874,81;0,03
2872,88;0,03
2870,95;0,03
2869,02;0,03
2867,09;0,03
2865,16;0,03
2863,23;0,04
2861,30;0,04
2859,37;0,04
2857,44;0,04
2855,51;0,04
2853,58;0,04
2851,65;0,04
2849,72;0,04
2847,79;0,04
2845,86;0,04
2843,93;0,04
2842,00;0,04
2840,07;0,04
2838,14;0,05
2836,21;0,07
2834,28;0,13
2832,35;0,25
2830,42;0,45
2828,49;0,75
2826,56;1,13
2824,63;1,59
2822,70;2,12
2820,77;2,71
2818,84;3,37
2816,91;4,08
2814,98;4,85
2813,05;5,67
2811,12;6,55
2809,19;7,48
2807,26;8,46
2805,33;9,48
2803,40;10,52
2801,47;11,58
2799,54;12,64
2797,61;13,71
2795,68;14,78
2793,75;15,85
2791,82;16,95
2789,89;18,07
2787,96;19,23
2786,03;20,41
2784,10;21,61
2782,17;22,81
2780,24;24,00
2778,31;25,15
2776,38;26,25
2774,45;27,27
2772,52;28,20
2770,59;29,04
2768,66;29,79
2766,73;30,43
2764,80;30,96
2762,87;31,37
2760,94;31,70
2759,01;31,97
2757,08;32,23
2755,15;32,46
2753,22;32,63
2751,29;32,73
2749,36;32,73
2747,43;32,63
2745,50;32,42
2743,57;32,11
2741,64;31,66
2739,71;31,09
2737,78;30,39
2735,85;29,56
2733,92;28,66
2731,99;27,81
2730,06;27,18
2728,13;26,88
2726,20;26,88
2724,27;27,07
2722,34;27,40
2720,41;27,87
2718,48;28,48
2716,55;29,23
2714,62;30,10
2712,69;31,01
2710,76;31,85
2708,83;32,55
2706,90;33,10
2704,97;33,49
2703,04;33,73
2701,11;33,86
2699,18;33,87
2697,25;33,79
2695,32;33,64
2693,39;33,42
2691,46;33,16
2689,53;32,92
2687,60;32,71
2685,67;32,55
2683,74;32,46
2681,81;32,40
2679,88;32,38
2677,95;32,36
2676,02;32,35
2674,09;32,34
2672,16;32,37
2670,23;32,48
2668,30;32,70
2666,37;33,03
2664,44;33,44
2662,51;33,91
2660,58;34,40
2658,65;34,90
2656,72;35,39
2654,79;35,84
2652,86;36,24
2650,93;36,61
2649,00;36,95
2647,07;37,26
2645,14;37,54
2643,21;37,82
2641,28;38,07
2639,35;38,31
2637,42;38,54
2635,49;38,75
2633,56;38,94
2631,63;39,12
2629,70;39,30
2627,77;39,48
2625,84;39,66
2623,91;39,85
2621,98;40,05
2620,05;40,24
2618,12;40,45
2616,19;40,66
2614,26;40,89
2612,33;41,13
2610,40;41,38
2608,47;41,65
2606,54;41,94
2604,61;42,23
2602,68;42,55
2600,75;42,90
2598,82;43,27
2596,89;43,67
2594,96;44,09
2593,03;44,53
2591,10;45,00
2589,17;45,49
2587,24;46,00
2585,31;46,53
2583,38;47,08
2581,45;47,65
2579,52;48,23
2577,59;48,81
2575,66;49,39
2573,73;49,97
2571,80;50,54
2569,87;51,10
2567,94;51,64
2566,01;52,16
2564,08;52,65
2562,15;53,12
2560,22;53,56
2558,29;53,98
2556,36;54,37
2554,43;54,74
2552,50;55,09
2550,57;55,42
2548,64;55,73
2546,71;56,03
2544,78;56,31
2542,85;56,59
2540,92;56,85
2538,99;57,11
2537,06;57,35
2535,13;57,58
2533,20;57,82
2531,27;58,08
2529,34;58,37
2527,41;58,68
2525,48;59,00
2523,55;59,33
2521,62;59,66
2519,69;59,98
2517,76;60,30
2515,83;60,61
2513,90;60,92
2511,97;61,21
2510,04;61,48
2508,11;61,75
2506,18;61,99
2504,25;62,23
2502,32;62,45
2500,39;62,66
2498,46;62,86
2496,53;63,05
2494,60;63,23
2492,67;63,40
2490,74;63,55
2488,81;63,69
2486,88;63,82
2484,95;63,93
2483,02;64,04
2481,09;64,13
2479,16;64,22
2477,23;64,32
2475,30;64,40
2473,37;64,48
2471,44;64,56
2469,51;64,62
2467,58;64,68
2465,65;64,74
2463,72;64,79
2461,79;64,83
2459,86;64,87
2457,93;64,90
2456,00;64,91
2454,07;64,93
2452,14;64,94
2450,21;64,94
2448,28;64,94
2446,35;64,94
2444,42;64,93
2442,49;64,91
2440,56;64,89
2438,63;64,85
2436,70;64,81
2434,77;64,77
2432,84;64,72
2430,91;64,67
2428,98;64,62
2427,05;64,56
2425,12;64,51
2423,19;64,46
2421,26;64,41
2419,33;64,35
2417,40;64,29
2415,47;64,24
2413,54;64,19
2411,61;64,15
2409,68;64,12
2407,75;64,09
2405,82;64,08
2403,89;64,08
2401,96;64,09
2400,03;64,12
2398,10;64,16
2396,17;64,20
2394,24;64,26
2392,31;64,32
2390,38;64,37
2388,45;64,41
2386,52;64,43
2384,59;64,44
2382,66;64,44
2380,73;64,41
2378,80;64,38
2376,87;64,36
2374,94;64,37
2373,01;64,40
2371,08;64,43
2369,15;64,45
2367,22;64,46
2365,29;64,45
2363,36;64,44
2361,43;64,44
2359,50;64,43
2357,57;64,44
2355,64;64,45
2353,71;64,47
2351,78;64,49
2349,85;64,50
2347,92;64,51
2345,99;64,53
2344,06;64,53
2342,13;64,56
2340,20;64,59
2338,27;64,61
2336,34;64,63
2334,41;64,66
2332,48;64,67
2330,55;64,70
2328,62;64,75
2326,69;64,79
2324,76;64,82
2322,83;64,84
2320,90;64,88
2318,97;64,95
2317,04;65,03
2315,11;65,10
2313,18;65,17
2311,25;65,27
2309,32;65,38
2307,39;65,50
2305,46;65,62
2303,53;65,73
2301,60;65,84
2299,67;65,94
2297,74;66,05
2295,81;66,16
2293,88;66,26
2291,95;66,37
2290,02;66,47
2288,09;66,56
2286,16;66,66
2284,23;66,75
2282,30;66,87
2280,37;67,00
2278,44;67,14
2276,51;67,29
2274,58;67,41
2272,65;67,53
2270,72;67,63
2268,79;67,72
2266,86;67,82
2264,93;67,91
2263,00;68,01
2261,07;68,11
2259,14;68,20
2257,21;68,29
2255,28;68,37
2253,35;68,46
2251,42;68,53
2249,49;68,61
2247,56;68,69
2245,63;68,76
2243,70;68,82
2241,77;68,88
2239,84;68,93
2237,91;68,99
2235,98;69,03
2234,05;69,07
2232,12;69,10
2230,19;69,14
2228,26;69,17
2226,33;69,20
2224,40;69,22
2222,47;69,25
2220,54;69,27
2218,61;69,29
2216,68;69,31
2214,75;69,32
2212,82;69,33
2210,89;69,33
2208,96;69,33
2207,03;69,32
2205,10;69,32
2203,17;69,31
2201,24;69,31
2199,31;69,30
2197,38;69,28
2195,45;69,26
2193,52;69,23
2191,59;69,20
2189,66;69,18
2187,73;69,17
2185,80;69,17
2183,87;69,18
2181,94;69,19
2180,01;69,18
2178,08;69,19
2176,15;69,29
2174,22;69,40
2172,29;69,43
2170,36;69,47
2168,43;69,52
2166,50;69,59
2164,57;69,64
2162,64;69,69
2160,71;69,74
2158,78;69,80
2156,85;69,86
2154,92;69,92
2152,99;70,00
2151,06;70,10
2149,13;70,22
2147,20;70,37
2145,27;70,56
2143,34;70,76
2141,41;70,96
2139,48;71,14
2137,55;71,30
2135,62;71,43
2133,69;71,54
2131,76;71,64
2129,83;71,73
2127,90;71,80
2125,97;71,88
2124,04;71,94
2122,11;72,00
2120,18;72,05
2118,25;72,09
2116,32;72,13
2114,39;72,17
2112,46;72,21
2110,53;72,25
2108,60;72,28
2106,67;72,31
2104,74;72,34
2102,81;72,37
2100,88;72,40
2098,95;72,42
2097,02;72,45
2095,09;72,47
2093,16;72,50
2091,23;72,51
2089,30;72,51
2087,37;72,51
2085,44;72,52
2083,51;72,52
2081,58;72,52
2079,65;72,52
2077,72;72,52
2075,79;72,50
2073,86;72,49
2071,93;72,47
2070,00;72,46
2068,07;72,45
2066,14;72,41
2064,21;72,35
2062,28;72,30
2060,35;72,24
2058,42;72,18
2056,49;72,11
2054,56;72,04
2052,63;71,97
2050,70;71,88
2048,77;71,80
2046,84;71,72
2044,91;71,64
2042,98;71,54
2041,05;71,44
2039,12;71,35
2037,19;71,29
2035,26;71,25
2033,33;71,23
2031,40;71,24
2029,47;71,27
2027,54;71,32
2025,61;71,41
2023,68;71,54
2021,75;71,75
2019,82;71,98
2017,89;72,22
2015,96;72,48
2014,03;72,76
2012,10;73,03
2010,17;73,27
2008,24;73,47
2006,31;73,64
2004,38;73,78
2002,45;73,90
2000,52;74,00
1998,59;74,11
1996,66;74,24
1994,73;74,34
1992,80;74,40
1990,87;74,43
1988,94;74,43
1987,01;74,43
1985,08;74,45
1983,15;74,47
1981,22;74,50
1979,29;74,52
1977,36;74,54
1975,43;74,55
1973,50;74,57
1971,57;74,63
1969,64;74,68
1967,71;74,65
1965,78;74,61
1963,85;74,58
1961,92;74,57
1959,99;74,55
1958,06;74,54
1956,13;74,51
1954,20;74,48
1952,27;74,45
1950,34;74,46
1948,41;74,51
1946,48;74,54
1944,55;74,48
1942,62;74,34
1940,69;74,16
1938,76;74,03
1936,83;73,99
1934,90;74,00
1932,97;74,01
1931,04;73,99
1929,11;73,99
1927,18;74,05
1925,25;74,12
1923,32;74,09
1921,39;73,97
1919,46;73,82
1917,53;73,72
1915,60;73,63
1913,67;73,61
1911,74;73,60
1909,81;73,52
1907,88;73,40
1905,95;73,32
1904,02;73,25
1902,09;73,23
1900,16;73,25
1898,23;73,29
1896,30;73,28
1894,37;73,27
1892,44;73,24
1890,51;73,19
1888,58;73,15
1886,65;73,10
1884,72;73,07
1882,79;73,05
1880,86;73,06
1878,93;73,07
1877,00;73,11
1875,07;73,22
1873,14;73,41
1871,21;73,58
1869,28;73,66
1867,35;73,59
1865,42;73,52
1863,49;73,51
1861,56;73,55
1859,63;73,57
1857,70;73,59
1855,77;73,61
1853,84;73,66
1851,91;73,74
1849,98;73,93
1848,05;74,03
1846,12;73,96
1844,19;73,96
1842,26;73,91
1840,33;73,85
1838,40;73,81
1836,47;73,79
1834,54;73,86
1832,61;73,92
1830,68;73,97
1828,75;73,94
1826,82;73,81
1824,89;73,73
1822,96;73,61
1821,03;73,53
1819,10;73,46
1817,17;73,43
1815,24;73,46
1813,31;73,48
1811,38;73,40
1809,45;73,28
1807,52;73,17
1805,59;73,16
1803,66;73,13
1801,73;73,04
1799,80;72,94
1797,87;72,92
1795,94;72,82
1794,01;72,64
1792,08;72,41
1790,15;72,13
1788,22;71,80
1786,29;71,51
1784,36;71,22
1782,43;70,79
1780,50;70,26
1778,57;69,82
1776,64;69,66
1774,71;69,46
1772,78;69,25
1770,85;69,10
1768,92;69,04
1766,99;69,16
1765,06;69,26
1763,13;69,34
1761,20;69,46
1759,27;69,33
1757,34;69,19
1755,41;69,11
1753,48;68,96
1751,55;68,67
1749,62;68,06
1747,69;67,25
1745,76;66,35
1743,83;65,31
1741,90;64,23
1739,97;63,46
1738,04;62,98
1736,11;62,54
1734,18;62,18
1732,25;61,56
1730,32;61,03
1728,39;60,65
1726,46;60,29
1724,53;59,79
1722,60;59,00
1720,67;57,89
1718,74;55,81
1716,81;52,11
1714,88;48,35
1712,95;45,27
1711,02;43,00
1709,09;41,51
1707,16;40,83
1705,23;40,91
1703,30;41,31
1701,37;42,43
1699,44;44,58
1697,51;45,85
1695,58;47,39
1693,65;49,02
1691,72;50,48
1689,79;52,16
1687,86;53,76
1685,93;54,68
1684,00;55,57
1682,07;56,20
1680,14;56,55
1678,21;56,81
1676,28;57,25
1674,35;57,94
1672,42;58,31
1670,49;58,52
1668,56;58,79
1666,63;58,98
1664,70;59,11
1662,77;59,31
1660,84;59,46
1658,91;59,79
1656,98;60,41
1655,05;60,62
1653,12;60,64
1651,19;60,52
1649,26;60,49
1647,33;60,25
1645,40;60,00
1643,47;59,80
1641,54;59,87
1639,61;60,25
1637,68;60,40
1635,75;60,34
1633,82;60,34
1631,89;60,27
1629,96;60,30
1628,03;60,41
1626,10;60,42
1624,17;60,28
1622,24;60,14
1620,31;59,96
1618,38;59,49
1616,45;58,54
1614,52;57,56
1612,59;56,72
1610,66;55,85
1608,73;54,93
1606,80;54,27
1604,87;54,05
1602,94;54,16
1601,01;54,52
1599,08;55,12
1597,15;55,83
1595,22;56,41
1593,29;56,73
1591,36;56,78
1589,43;56,69
1587,50;56,60
1585,57;56,51
1583,64;56,33
1581,71;56,20
1579,78;56,19
1577,85;55,90
1575,92;55,19
1573,99;54,61
1572,06;54,14
1570,13;53,68
1568,20;53,12
1566,27;52,62
1564,34;52,36
1562,41;52,20
1560,48;51,82
1558,55;50,93
1556,62;49,90
1554,69;48,96
1552,76;48,07
1550,83;47,21
1548,90;46,37
1546,97;45,70
1545,04;45,20
1543,11;44,63
1541,18;43,61
1539,25;42,14
1537,32;40,91
1535,39;39,95
1533,46;38,97
1531,53;37,92
1529,60;37,03
1527,67;36,07
1525,74;35,11
1523,81;34,08
1521,88;32,74
1519,95;31,14
1518,02;29,72
1516,09;28,30
1514,16;27,29
1512,23;26,73
1510,30;26,41
1508,37;25,65
1506,44;24,20
1504,51;22,74
1502,58;21,66
1500,65;20,70
1498,72;19,70
1496,79;18,39
1494,86;16,86
1492,93;15,37
1491,00;13,73
1489,07;11,90
1487,14;10,25
1485,21;8,82
1483,28;7,41
1481,35;5,92
1479,42;4,43
1477,49;3,08
1475,56;1,86
1473,63;0,93
1471,70;0,31
1469,77;0,08
1467,84;0,02
1465,91;0,02
1463,98;0,02
1462,05;0,02
1460,12;0,02
1458,19;0,03
1456,26;0,02
1454,33;0,03
1452,40;0,02
1450,47;0,05
1448,54;0,06
1446,61;0,12
1444,68;0,18
1442,75;0,33
1440,82;0,54
1438,89;0,86
1436,96;1,44
1435,03;2,41
1433,10;3,68
1431,17;5,47
1429,24;7,68
1427,31;9,83
1425,38;11,73
1423,45;13,47
1421,52;14,88
1419,59;16,22
1417,66;17,44
1415,73;18,34
1413,80;19,08
1411,87;19,71
1409,94;20,15
1408,01;20,46
1406,08;20,61
1404,15;20,65
1402,22;20,53
1400,29;20,26
1398,36;19,62
1396,43;18,41
1394,50;16,40
1392,57;13,90
1390,64;11,27
1388,71;8,42
1386,78;5,45
1384,85;3,13
1382,92;1,66
1380,99;0,76
1379,06;0,28
1377,13;0,15
1375,20;0,28
1373,27;0,76
1371,34;1,40
1369,41;1,75
1367,48;1,73
1365,55;2,11
1363,62;3,61
1361,69;6,02
1359,76;8,24
1357,83;9,76
1355,90;10,65
1353,97;11,17
1352,04;11,67
1350,11;12,37
1348,18;13,23
1346,25;14,07
1344,32;14,73
1342,39;15,26
1340,46;15,93
1338,53;16,98
1336,60;18,30
1334,67;19,71
1332,74;21,08
1330,81;22,31
1328,88;23,32
1326,95;24,11
1325,02;24,67
1323,09;25,00
1321,16;25,06
1319,23;24,84
1317,30;24,44
1315,37;24,00
1313,44;23,54
1311,51;23,08
1309,58;22,68
1307,65;22,39
1305,72;22,23
1303,79;22,26
1301,86;22,52
1299,93;23,03
1298,00;23,76
1296,07;24,60
1294,14;25,44
1292,21;26,24
1290,28;26,97
1288,35;27,62
1286,42;28,18
1284,49;28,62
1282,56;28,96
1280,63;29,19
1278,70;29,33
1276,77;29,44
1274,84;29,58
1272,91;29,78
1270,98;30,05
1269,05;30,40
1267,12;30,77
1265,19;31,06
1263,26;31,30
1261,33;31,53
1259,40;31,80
1257,47;32,04
1255,54;32,15
1253,61;32,10
1251,68;31,95
1249,75;31,73
1247,82;31,49
1245,89;31,26
1243,96;31,02
1242,03;30,67
1240,10;30,06
1238,17;29,05
1236,24;27,73
1234,31;26,47
1232,38;25,69
1230,45;25,53
1228,52;25,87
1226,59;26,47
1224,66;27,15
1222,73;27,82
1220,80;28,45
1218,87;29,00
1216,94;29,49
1215,01;29,91
1213,08;30,27
1211,15;30,56
1209,22;30,79
1207,29;31,01
1205,36;31,26
1203,43;31,53
1201,50;31,75
1199,57;31,91
1197,64;31,99
1195,71;31,98
1193,78;31,92
1191,85;31,84
1189,92;31,76
1187,99;31,69
1186,06;31,57
1184,13;31,31
1182,20;30,87
1180,27;30,39
1178,34;29,97
1176,41;29,42
1174,48;28,57
1172,55;27,60
1170,62;26,89
1168,69;26,77
1166,76;27,12
1164,83;27,52
1162,90;27,64
1160,97;27,46
1159,04;27,14
1157,11;26,88
1155,18;26,81
1153,25;26,97
1151,32;27,38
1149,39;27,99
1147,46;28,76
1145,53;29,66
1143,60;30,64
1141,67;31,63
1139,74;32,60
1137,81;33,45
1135,88;34,16
1133,95;34,72
1132,02;35,15
1130,09;35,43
1128,16;35,57
1126,23;35,65
1124,30;35,71
1122,37;35,79
1120,44;36,00
1118,51;36,33
1116,58;36,64
1114,65;36,81
1112,72;36,87
1110,79;36,92
1108,86;37,01
1106,93;37,07
1105,00;36,99
1103,07;36,77
1101,14;36,40
1099,21;35,90
1097,28;35,32
1095,35;34,74
1093,42;34,24
1091,49;33,94
1089,56;33,86
1087,63;33,93
1085,70;34,04
1083,77;34,10
1081,84;34,06
1079,91;34,02
1077,98;34,05
1076,05;34,22
1074,12;34,58
1072,19;35,04
1070,26;35,46
1068,33;35,76
1066,40;35,90
1064,47;35,93
1062,54;35,96
1060,61;36,11
1058,68;36,39
1056,75;36,74
1054,82;37,06
1052,89;37,29
1050,96;37,42
1049,03;37,43
1047,10;37,30
1045,17;37,00
1043,24;36,54
1041,31;35,93
1039,38;35,17
1037,45;34,26
1035,52;33,26
1033,59;32,30
1031,66;31,57
1029,73;31,25
1027,80;31,36
1025,87;31,80
1023,94;32,43
1022,01;33,09
1020,08;33,70
1018,15;34,12
1016,22;34,26
1014,29;34,12
1012,36;33,80
1010,43;33,36
1008,50;32,80
1006,57;32,12
1004,64;31,32
1002,71;30,45
1000,78;29,64
998,85;28,98
996,92;28,49
994,99;28,12
993,06;27,78
991,13;27,41
989,20;26,91
987,27;26,19
985,34;25,21
983,41;24,00
981,48;22,68
979,55;21,45
977,62;20,45
975,69;19,78
973,76;19,46
971,83;19,47
969,90;19,77
967,97;20,34
966,04;21,15
964,11;22,13
962,18;23,08
960,25;23,82
958,32;24,28
956,39;24,56
954,46;24,91
952,53;25,54
950,60;26,47
948,67;27,57
946,74;28,71
944,81;29,83
942,88;30,90
940,95;31,87
939,02;32,73
937,09;33,52
935,16;34,31
933,23;35,14
931,30;35,97
929,37;36,73
927,44;37,38
925,51;37,84
923,58;38,13
921,65;38,27
919,72;38,47
917,79;39,06
915,86;40,13
913,93;41,24
912,00;42,05
910,07;42,62
908,14;43,18
906,21;43,78
904,28;44,20
902,35;44,30
900,42;44,11
898,49;43,71
896,56;43,22
894,63;42,72
892,70;42,24
890,77;41,91
888,84;41,99
886,91;42,64
884,98;43,55
883,05;44,27
881,12;44,59
879,19;44,59
877,26;44,43
875,33;44,21
873,40;43,96
871,47;43,78
869,54;43,69
867,61;43,69
865,68;43,73
863,75;43,82
861,82;43,91
859,89;43,97
857,96;43,97
856,03;43,99
854,10;44,17
852,17;44,57
850,24;45,15
848,31;45,88
846,38;46,67
844,45;47,46
842,52;48,32
840,59;49,22
838,66;49,93
836,73;50,38
834,80;50,61
832,87;50,61
830,94;50,37
829,01;49,93
827,08;49,37
825,15;48,73
823,22;48,07
821,29;47,33
819,36;46,45
817,43;45,51
815,50;44,85
813,57;44,85
811,64;45,55
809,71;46,51
807,78;47,27
805,85;47,79
803,92;48,48
801,99;49,54
800,06;50,74
798,13;51,71
796,20;52,37
794,27;52,77
792,34;52,88
790,41;52,70
788,48;52,21
786,55;51,39
784,62;50,25
782,69;48,95
780,76;47,63
778,83;46,32
776,90;44,96
774,97;43,64
773,04;42,56
771,11;41,91
769,18;41,67
767,25;41,73
765,32;41,98
763,39;42,29
761,46;42,39
759,53;42,08
757,60;41,30
755,67;40,18
753,74;38,89
751,81;37,65
749,88;36,62
747,95;35,74
746,02;34,73
744,09;33,34
742,16;31,56
740,23;29,73
738,30;28,28
736,37;27,18
734,44;26,12
732,51;24,82
730,58;23,11
728,65;20,93
726,72;18,39
724,79;15,77
722,86;13,94
720,93;14,21
719,00;17,47
717,07;22,88
715,14;28,87
713,21;34,41
711,28;39,39
709,35;43,70
707,42;47,24
705,49;50,04
703,56;52,29
701,63;53,97
699,70;55,21
697,77;56,73
695,84;58,89
693,91;60,78
691,98;61,84
690,05;62,33
688,12;62,58
686,19;62,74
684,26;62,82
682,33;62,76
680,40;62,50
678,47;62,01
676,54;61,28
674,61;60,32
672,68;59,24
670,75;58,29
668,82;57,66
666,89;57,54
664,96;57,54
663,03;57,59
661,10;57,58
659,17;57,32
657,24;56,81
655,31;56,41
653,38;56,62
651,45;57,65
649,52;59,26
647,59;60,96
645,66;62,28
643,73;62,96
641,80;63,02
639,87;62,73
637,94;62,53
636,01;62,81
634,08;63,32
632,15;63,59
630,22;63,55
628,29;63,50
626,36;63,79
624,43;64,37
622,50;65,00
620,57;65,53
618,64;65,94
616,71;66,20
614,78;66,35
612,85;66,43
610,92;66,51
608,99;66,58
607,06;66,66
605,13;66,74
603,20;66,86
601,27;66,97
599,34;67,03
597,41;66,99
595,48;66,88
593,55;66,71
591,62;66,41
589,69;65,97
587,76;65,61
585,83;65,43
583,90;65,48
581,97;65,67
580,04;65,80
578,11;65,84
576,18;65,82
574,25;65,69
572,32;65,48
570,39;65,20
568,46;64,83
566,53;64,41
564,60;64,04
562,67;63,74
560,74;63,53
558,81;63,43
556,88;63,36
554,95;63,30
553,02;63,20
551,09;63,13
549,16;63,11
547,23;63,20
545,30;63,35
543,37;63,56
541,44;63,73
539,51;63,89
537,58;64,13
535,65;64,49
533,72;64,90
531,79;65,33
529,86;65,75
527,93;66,27
526,00;66,77
524,07;67,13
522,14;67,52
520,21;68,00
518,28;68,41
516,35;68,60
514,42;68,70
512,49;68,82
510,56;68,97
508,63;69,10
506,70;69,17
504,77;69,16
502,84;69,20
500,91;69,12
