Created as New Dataset;Amostra 417 por Laboratório data terça-feira, setembro 24 2024
cm-1;%T
4000,00;70,92
3998,07;70,97
3996,14;71,03
3994,21;71,10
3992,28;71,17
3990,35;71,25
3988,42;71,33
3986,49;71,42
3984,56;71,51
3982,63;71,61
3980,70;71,72
3978,77;71,84
3976,84;71,96
3974,91;72,10
3972,98;72,25
3971,05;72,41
3969,12;72,58
3967,19;72,74
3965,26;72,90
3963,33;73,04
3961,40;73,17
3959,47;73,26
3957,54;73,33
3955,61;73,39
3953,68;73,43
3951,75;73,47
3949,82;73,51
3947,89;73,56
3945,96;73,61
3944,03;73,66
3942,10;73,72
3940,17;73,77
3938,24;73,83
3936,31;73,89
3934,38;73,94
3932,45;74,01
3930,52;74,07
3928,59;74,13
3926,66;74,18
3924,73;74,24
3922,80;74,29
3920,87;74,33
3918,94;74,36
3917,01;74,38
3915,08;74,39
3913,15;74,38
3911,22;74,37
3909,29;74,34
3907,36;74,30
3905,43;74,25
3903,50;74,19
3901,57;74,09
3899,64;73,97
3897,71;73,82
3895,78;73,67
3893,85;73,51
3891,92;73,33
3889,99;73,14
3888,06;72,97
3886,13;72,83
3884,20;72,72
3882,27;72,66
3880,34;72,68
3878,41;72,77
3876,48;72,93
3874,55;73,20
3872,62;73,50
3870,69;73,85
3868,76;74,22
3866,83;74,53
3864,90;74,82
3862,97;75,06
3861,04;75,24
3859,11;75,38
3857,18;75,49
3855,25;75,57
3853,32;75,64
3851,39;75,67
3849,46;75,71
3847,53;75,74
3845,60;75,76
3843,67;75,78
3841,74;75,82
3839,81;75,87
3837,88;75,92
3835,95;75,97
3834,02;76,03
3832,09;76,07
3830,16;76,09
3828,23;76,09
3826,30;76,09
3824,37;76,08
3822,44;76,05
3820,51;76,01
3818,58;75,94
3816,65;75,85
3814,72;75,77
3812,79;75,70
3810,86;75,67
3808,93;75,66
3807,00;75,69
3805,07;75,73
3803,14;75,77
3801,21;75,84
3799,28;75,89
3797,35;75,96
3795,42;76,06
3793,49;76,19
3791,56;76,37
3789,63;76,60
3787,70;76,86
3785,77;77,13
3783,84;77,40
3781,91;77,65
3779,98;77,88
3778,05;78,07
3776,12;78,24
3774,19;78,38
3772,26;78,51
3770,33;78,63
3768,40;78,74
3766,47;78,84
3764,54;78,95
3762,61;79,05
3760,68;79,15
3758,75;79,26
3756,82;79,36
3754,89;79,47
3752,96;79,58
3751,03;79,69
3749,10;79,81
3747,17;79,90
3745,24;79,97
3743,31;80,03
3741,38;80,06
3739,45;80,11
3737,52;80,15
3735,59;80,21
3733,66;80,26
3731,73;80,27
3729,80;80,26
3727,87;80,24
3725,94;80,25
3724,01;80,25
3722,08;80,25
3720,15;80,26
3718,22;80,25
3716,29;80,22
3714,36;80,19
3712,43;80,17
3710,50;80,12
3708,57;80,07
3706,64;80,01
3704,71;79,93
3702,78;79,79
3700,85;79,60
3698,92;79,39
3696,99;79,21
3695,06;79,07
3693,13;79,00
3691,20;79,02
3689,27;79,10
3687,34;79,19
3685,41;79,27
3683,48;79,33
3681,55;79,36
3679,62;79,38
3677,69;79,37
3675,76;79,36
3673,83;79,35
3671,90;79,30
3669,97;79,24
3668,04;79,14
3666,11;79,03
3664,18;78,93
3662,25;78,84
3660,32;78,74
3658,39;78,63
3656,46;78,52
3654,53;78,43
3652,60;78,36
3650,67;78,27
3648,74;78,18
3646,81;78,11
3644,88;78,08
3642,95;78,07
3641,02;78,07
3639,09;78,08
3637,16;78,10
3635,23;78,14
3633,30;78,20
3631,37;78,24
3629,44;78,28
3627,51;78,34
3625,58;78,40
3623,65;78,45
3621,72;78,50
3619,79;78,52
3617,86;78,51
3615,93;78,48
3614,00;78,46
3612,07;78,42
3610,14;78,38
3608,21;78,32
3606,28;78,26
3604,35;78,17
3602,42;78,04
3600,49;77,89
3598,56;77,69
3596,63;77,45
3594,70;77,17
3592,77;76,85
3590,84;76,51
3588,91;76,11
3586,98;75,64
3585,05;75,15
3583,12;74,63
3581,19;74,07
3579,26;73,48
3577,33;72,87
3575,40;72,25
3573,47;71,65
3571,54;71,08
3569,61;70,52
3567,68;69,96
3565,75;69,42
3563,82;68,96
3561,89;68,55
3559,96;68,17
3558,03;67,83
3556,10;67,55
3554,17;67,32
3552,24;67,14
3550,31;66,99
3548,38;66,87
3546,45;66,80
3544,52;66,74
3542,59;66,67
3540,66;66,62
3538,73;66,59
3536,80;66,57
3534,87;66,56
3532,94;66,55
3531,01;66,56
3529,08;66,57
3527,15;66,60
3525,22;66,65
3523,29;66,69
3521,36;66,73
3519,43;66,77
3517,50;66,82
3515,57;66,87
3513,64;66,91
3511,71;66,93
3509,78;66,93
3507,85;66,91
3505,92;66,85
3503,99;66,74
3502,06;66,56
3500,13;66,29
3498,20;65,93
3496,27;65,46
3494,34;64,85
3492,41;64,11
3490,48;63,24
3488,55;62,23
3486,62;61,08
3484,69;59,84
3482,76;58,52
3480,83;57,16
3478,90;55,82
3476,97;54,55
3475,04;53,39
3473,11;52,40
3471,18;51,64
3469,25;51,13
3467,32;50,89
3465,39;50,93
3463,46;51,27
3461,53;51,89
3459,60;52,76
3457,67;53,85
3455,74;55,09
3453,81;56,48
3451,88;57,94
3449,95;59,44
3448,02;60,93
3446,09;62,39
3444,16;63,76
3442,23;65,03
3440,30;66,20
3438,37;67,26
3436,44;68,18
3434,51;68,97
3432,58;69,65
3430,65;70,22
3428,72;70,70
3426,79;71,09
3424,86;71,40
3422,93;71,67
3421,00;71,88
3419,07;72,03
3417,14;72,14
3415,21;72,21
3413,28;72,25
3411,35;72,22
3409,42;72,14
3407,49;71,99
3405,56;71,78
3403,63;71,54
3401,70;71,26
3399,77;70,94
3397,84;70,63
3395,91;70,37
3393,98;70,17
3392,05;70,03
3390,12;69,93
3388,19;69,89
3386,26;69,88
3384,33;69,91
3382,40;69,96
3380,47;70,01
3378,54;70,07
3376,61;70,13
3374,68;70,21
3372,75;70,29
3370,82;70,40
3368,89;70,53
3366,96;70,68
3365,03;70,85
3363,10;71,05
3361,17;71,27
3359,24;71,50
3357,31;71,72
3355,38;71,93
3353,45;72,13
3351,52;72,30
3349,59;72,44
3347,66;72,55
3345,73;72,64
3343,80;72,71
3341,87;72,75
3339,94;72,76
3338,01;72,75
3336,08;72,72
3334,15;72,68
3332,22;72,63
3330,29;72,57
3328,36;72,50
3326,43;72,42
3324,50;72,34
3322,57;72,25
3320,64;72,17
3318,71;72,09
3316,78;72,02
3314,85;71,97
3312,92;71,95
3310,99;71,95
3309,06;71,98
3307,13;72,04
3305,20;72,11
3303,27;72,20
3301,34;72,30
3299,41;72,39
3297,48;72,49
3295,55;72,57
3293,62;72,62
3291,69;72,64
3289,76;72,63
3287,83;72,59
3285,90;72,51
3283,97;72,41
3282,04;72,28
3280,11;72,12
3278,18;71,95
3276,25;71,75
3274,32;71,54
3272,39;71,31
3270,46;71,07
3268,53;70,82
3266,60;70,56
3264,67;70,29
3262,74;70,02
3260,81;69,74
3258,88;69,46
3256,95;69,17
3255,02;68,87
3253,09;68,57
3251,16;68,27
3249,23;67,96
3247,30;67,65
3245,37;67,34
3243,44;67,03
3241,51;66,71
3239,58;66,39
3237,65;66,08
3235,72;65,76
3233,79;65,45
3231,86;65,14
3229,93;64,83
3228,00;64,53
3226,07;64,22
3224,14;63,92
3222,21;63,63
3220,28;63,35
3218,35;63,08
3216,42;62,82
3214,49;62,58
3212,56;62,35
3210,63;62,14
3208,70;61,95
3206,77;61,76
3204,84;61,59
3202,91;61,43
3200,98;61,28
3199,05;61,14
3197,12;61,01
3195,19;60,89
3193,26;60,78
3191,33;60,68
3189,40;60,60
3187,47;60,54
3185,54;60,50
3183,61;60,48
3181,68;60,49
3179,75;60,53
3177,82;60,60
3175,89;60,70
3173,96;60,83
3172,03;60,98
3170,10;61,17
3168,17;61,37
3166,24;61,59
3164,31;61,82
3162,38;62,06
3160,45;62,30
3158,52;62,54
3156,59;62,78
3154,66;63,00
3152,73;63,21
3150,80;63,41
3148,87;63,61
3146,94;63,78
3145,01;63,94
3143,08;64,08
3141,15;64,21
3139,22;64,32
3137,29;64,42
3135,36;64,51
3133,43;64,58
3131,50;64,64
3129,57;64,69
3127,64;64,73
3125,71;64,76
3123,78;64,76
3121,85;64,76
3119,92;64,73
3117,99;64,70
3116,06;64,65
3114,13;64,59
3112,20;64,51
3110,27;64,41
3108,34;64,29
3106,41;64,17
3104,48;64,02
3102,55;63,86
3100,62;63,69
3098,69;63,51
3096,76;63,31
3094,83;63,10
3092,90;62,88
3090,97;62,64
3089,04;62,38
3087,11;62,09
3085,18;61,79
3083,25;61,46
3081,32;61,11
3079,39;60,72
3077,46;60,31
3075,53;59,86
3073,60;59,38
3071,67;58,87
3069,74;58,32
3067,81;57,74
3065,88;57,13
3063,95;56,50
3062,02;55,86
3060,09;55,20
3058,16;54,53
3056,23;53,85
3054,30;53,15
3052,37;52,43
3050,44;51,68
3048,51;50,88
3046,58;50,01
3044,65;49,08
3042,72;48,07
3040,79;46,98
3038,86;45,79
3036,93;44,51
3035,00;43,15
3033,07;41,68
3031,14;40,12
3029,21;38,47
3027,28;36,71
3025,35;34,84
3023,42;32,84
3021,49;30,70
3019,56;28,42
3017,63;25,99
3015,70;23,43
3013,77;20,77
3011,84;18,04
3009,91;15,30
3007,98;12,60
3006,05;10,04
3004,12;7,69
3002,19;5,64
3000,26;3,94
2998,33;2,62
2996,40;1,66
2994,47;1,01
2992,54;0,59
2990,61;0,35
2988,68;0,21
2986,75;0,13
2984,82;0,09
2982,89;0,06
2980,96;0,05
2979,03;0,04
2977,10;0,04
2975,17;0,04
2973,24;0,04
2971,31;0,04
2969,38;0,04
2967,45;0,04
2965,52;0,04
2963,59;0,04
2961,66;0,04
2959,73;0,04
2957,80;0,04
2955,87;0,04
2953,94;0,04
2952,01;0,04
2950,08;0,04
2948,15;0,04
2946,22;0,04
2944,29;0,04
2942,36;0,04
2940,43;0,04
2938,50;0,04
2936,57;0,04
2934,64;0,04
2932,71;0,04
2930,78;0,04
2928,85;0,04
2926,92;0,04
2924,99;0,04
2923,06;0,04
2921,13;0,04
2919,20;0,04
2917,27;0,04
2915,34;0,04
2913,41;0,04
2911,48;0,04
2909,55;0,04
2907,62;0,04
2905,69;0,04
2903,76;0,04
2901,83;0,03
2899,90;0,03
2897,97;0,04
2896,04;0,03
2894,11;0,03
2892,18;0,03
2890,25;0,04
2888,32;0,04
2886,39;0,04
2884,46;0,04
2882,53;0,03
2880,60;0,03
2878,67;0,03
2876,74;0,03
2874,81;0,03
2872,88;0,04
2870,95;0,04
2869,02;0,04
2867,09;0,04
2865,16;0,04
2863,23;0,04
2861,30;0,04
2859,37;0,04
2857,44;0,04
2855,51;0,05
2853,58;0,05
2851,65;0,06
2849,72;0,08
2847,79;0,12
2845,86;0,20
2843,93;0,34
2842,00;0,57
2840,07;0,95
2838,14;1,51
2836,21;2,23
2834,28;3,07
2832,35;4,02
2830,42;5,12
2828,49;6,43
2826,56;7,97
2824,63;9,68
2822,70;11,47
2820,77;13,20
2818,84;14,81
2816,91;16,25
2814,98;17,57
2813,05;18,85
2811,12;20,17
2809,19;21,57
2807,26;23,09
2805,33;24,72
2803,40;26,50
2801,47;28,41
2799,54;30,41
2797,61;32,38
2795,68;34,21
2793,75;35,85
2791,82;37,27
2789,89;38,50
2787,96;39,57
2786,03;40,53
2784,10;41,50
2782,17;42,59
2780,24;43,78
2778,31;44,98
2776,38;46,06
2774,45;46,97
2772,52;47,69
2770,59;48,23
2768,66;48,59
2766,73;48,79
2764,80;48,81
2762,87;48,66
2760,94;48,31
2759,01;47,70
2757,08;46,80
2755,15;45,60
2753,22;44,19
2751,29;42,80
2749,36;41,76
2747,43;41,39
2745,50;41,75
2743,57;42,60
2741,64;43,56
2739,71;44,32
2737,78;44,79
2735,85;44,99
2733,92;45,02
2731,99;44,97
2730,06;44,91
2728,13;44,85
2726,20;44,73
2724,27;44,47
2722,34;44,12
2720,41;43,84
2718,48;43,84
2716,55;44,11
2714,62;44,57
2712,69;45,19
2710,76;46,06
2708,83;47,24
2706,90;48,56
2704,97;49,76
2703,04;50,65
2701,11;51,25
2699,18;51,64
2697,25;51,95
2695,32;52,26
2693,39;52,64
2691,46;53,07
2689,53;53,54
2687,60;53,99
2685,67;54,41
2683,74;54,76
2681,81;55,06
2679,88;55,32
2677,95;55,57
2676,02;55,81
2674,09;56,10
2672,16;56,43
2670,23;56,82
2668,30;57,27
2666,37;57,76
2664,44;58,25
2662,51;58,74
2660,58;59,18
2658,65;59,58
2656,72;59,92
2654,79;60,22
2652,86;60,46
2650,93;60,65
2649,00;60,82
2647,07;60,96
2645,14;61,11
2643,21;61,28
2641,28;61,48
2639,35;61,73
2637,42;62,03
2635,49;62,36
2633,56;62,71
2631,63;63,07
2629,70;63,42
2627,77;63,75
2625,84;64,05
2623,91;64,32
2621,98;64,55
2620,05;64,75
2618,12;64,91
2616,19;65,06
2614,26;65,21
2612,33;65,39
2610,40;65,62
2608,47;65,89
2606,54;66,17
2604,61;66,42
2602,68;66,63
2600,75;66,80
2598,82;66,96
2596,89;67,12
2594,96;67,31
2593,03;67,52
2591,10;67,76
2589,17;68,00
2587,24;68,24
2585,31;68,46
2583,38;68,67
2581,45;68,86
2579,52;69,02
2577,59;69,16
2575,66;69,28
2573,73;69,37
2571,80;69,46
2569,87;69,56
2567,94;69,68
2566,01;69,84
2564,08;70,03
2562,15;70,26
2560,22;70,48
2558,29;70,68
2556,36;70,85
2554,43;71,00
2552,50;71,12
2550,57;71,24
2548,64;71,35
2546,71;71,47
2544,78;71,59
2542,85;71,72
2540,92;71,85
2538,99;71,99
2537,06;72,12
2535,13;72,26
2533,20;72,41
2531,27;72,55
2529,34;72,69
2527,41;72,82
2525,48;72,94
2523,55;73,04
2521,62;73,13
2519,69;73,19
2517,76;73,24
2515,83;73,27
2513,90;73,29
2511,97;73,30
2510,04;73,31
2508,11;73,29
2506,18;73,27
2504,25;73,24
2502,32;73,22
2500,39;73,19
2498,46;73,17
2496,53;73,16
2494,60;73,16
2492,67;73,16
2490,74;73,17
2488,81;73,17
2486,88;73,17
2484,95;73,16
2483,02;73,14
2481,09;73,11
2479,16;73,07
2477,23;73,03
2475,30;72,98
2473,37;72,93
2471,44;72,86
2469,51;72,77
2467,58;72,65
2465,65;72,53
2463,72;72,41
2461,79;72,32
2459,86;72,27
2457,93;72,31
2456,00;72,40
2454,07;72,55
2452,14;72,70
2450,21;72,84
2448,28;72,95
2446,35;73,04
2444,42;73,10
2442,49;73,13
2440,56;73,14
2438,63;73,14
2436,70;73,11
2434,77;73,07
2432,84;73,00
2430,91;72,90
2428,98;72,77
2427,05;72,60
2425,12;72,40
2423,19;72,15
2421,26;71,87
2419,33;71,55
2417,40;71,21
2415,47;70,87
2413,54;70,58
2411,61;70,35
2409,68;70,21
2407,75;70,15
2405,82;70,15
2403,89;70,17
2401,96;70,17
2400,03;70,14
2398,10;70,09
2396,17;70,03
2394,24;69,99
2392,31;69,96
2390,38;69,94
2388,45;69,91
2386,52;69,86
2384,59;69,78
2382,66;69,70
2380,73;69,62
2378,80;69,57
2376,87;69,54
2374,94;69,55
2373,01;69,60
2371,08;69,68
2369,15;69,76
2367,22;69,80
2365,29;69,80
2363,36;69,78
2361,43;69,75
2359,50;69,71
2357,57;69,70
2355,64;69,69
2353,71;69,73
2351,78;69,75
2349,85;69,52
2347,92;69,41
2345,99;69,71
2344,06;69,85
2342,13;69,73
2340,20;69,64
2338,27;69,56
2336,34;69,54
2334,41;69,54
2332,48;69,54
2330,55;69,53
2328,62;69,45
2326,69;69,32
2324,76;69,23
2322,83;69,18
2320,90;69,11
2318,97;69,03
2317,04;68,94
2315,11;68,84
2313,18;68,77
2311,25;68,69
2309,32;68,62
2307,39;68,58
2305,46;68,52
2303,53;68,39
2301,60;68,15
2299,67;67,74
2297,74;67,22
2295,81;66,70
2293,88;66,34
2291,95;66,28
2290,02;66,54
2288,09;66,98
2286,16;67,48
2284,23;67,95
2282,30;68,38
2280,37;68,77
2278,44;69,12
2276,51;69,43
2274,58;69,70
2272,65;69,94
2270,72;70,17
2268,79;70,38
2266,86;70,58
2264,93;70,78
2263,00;70,96
2261,07;71,15
2259,14;71,34
2257,21;71,52
2255,28;71,69
2253,35;71,85
2251,42;71,98
2249,49;72,10
2247,56;72,20
2245,63;72,29
2243,70;72,35
2241,77;72,41
2239,84;72,42
2237,91;72,40
2235,98;72,34
2234,05;72,24
2232,12;72,13
2230,19;72,02
2228,26;71,91
2226,33;71,83
2224,40;71,75
2222,47;71,70
2220,54;71,67
2218,61;71,65
2216,68;71,64
2214,75;71,64
2212,82;71,67
2210,89;71,70
2208,96;71,74
2207,03;71,77
2205,10;71,79
2203,17;71,78
2201,24;71,74
2199,31;71,68
2197,38;71,61
2195,45;71,51
2193,52;71,42
2191,59;71,33
2189,66;71,25
2187,73;71,16
2185,80;71,09
2183,87;71,00
2181,94;70,94
2180,01;70,88
2178,08;70,79
2176,15;70,72
2174,22;70,67
2172,29;70,57
2170,36;70,46
2168,43;70,35
2166,50;70,25
2164,57;70,14
2162,64;70,05
2160,71;69,96
2158,78;69,87
2156,85;69,79
2154,92;69,72
2152,99;69,66
2151,06;69,58
2149,13;69,50
2147,20;69,40
2145,27;69,31
2143,34;69,20
2141,41;69,09
2139,48;68,97
2137,55;68,88
2135,62;68,79
2133,69;68,69
2131,76;68,57
2129,83;68,43
2127,90;68,25
2125,97;68,06
2124,04;67,85
2122,11;67,62
2120,18;67,35
2118,25;67,05
2116,32;66,73
2114,39;66,39
2112,46;66,05
2110,53;65,77
2108,60;65,56
2106,67;65,44
2104,74;65,38
2102,81;65,33
2100,88;65,28
2098,95;65,24
2097,02;65,21
2095,09;65,17
2093,16;65,17
2091,23;65,22
2089,30;65,29
2087,37;65,36
2085,44;65,45
2083,51;65,53
2081,58;65,62
2079,65;65,70
2077,72;65,80
2075,79;65,87
2073,86;65,95
2071,93;65,99
2070,00;65,99
2068,07;66,00
2066,14;66,08
2064,21;66,12
2062,28;66,12
2060,35;66,09
2058,42;66,04
2056,49;65,97
2054,56;65,89
2052,63;65,79
2050,70;65,66
2048,77;65,52
2046,84;65,34
2044,91;65,14
2042,98;64,99
2041,05;64,82
2039,12;64,60
2037,19;64,39
2035,26;64,17
2033,33;63,99
2031,40;63,82
2029,47;63,70
2027,54;63,62
2025,61;63,59
2023,68;63,57
2021,75;63,58
2019,82;63,70
2017,89;63,96
2015,96;64,20
2014,03;64,41
2012,10;64,61
2010,17;64,83
2008,24;65,07
2006,31;65,31
2004,38;65,54
2002,45;65,78
2000,52;66,02
1998,59;66,26
1996,66;66,27
1994,73;66,47
1992,80;66,81
1990,87;67,17
1988,94;67,55
1987,01;67,87
1985,08;68,13
1983,15;68,34
1981,22;68,50
1979,29;68,59
1977,36;68,65
1975,43;68,65
1973,50;68,59
1971,57;68,43
1969,64;68,38
1967,71;68,45
1965,78;68,48
1963,85;68,47
1961,92;68,49
1959,99;68,51
1958,06;68,56
1956,13;68,65
1954,20;68,75
1952,27;68,85
1950,34;68,97
1948,41;69,09
1946,48;69,24
1944,55;69,42
1942,62;69,61
1940,69;69,82
1938,76;70,02
1936,83;70,19
1934,90;70,39
1932,97;70,60
1931,04;70,75
1929,11;70,89
1927,18;70,99
1925,25;71,08
1923,32;71,13
1921,39;71,18
1919,46;71,17
1917,53;71,16
1915,60;71,09
1913,67;70,96
1911,74;70,87
1909,81;70,89
1907,88;70,85
1905,95;70,76
1904,02;70,63
1902,09;70,48
1900,16;70,26
1898,23;70,04
1896,30;69,87
1894,37;69,65
1892,44;69,39
1890,51;69,29
1888,58;69,17
1886,65;69,03
1884,72;68,86
1882,79;68,65
1880,86;68,46
1878,93;68,24
1877,00;67,98
1875,07;67,61
1873,14;67,19
1871,21;66,83
1869,28;66,68
1867,35;66,45
1865,42;66,09
1863,49;65,65
1861,56;65,27
1859,63;64,86
1857,70;64,43
1855,77;63,94
1853,84;63,38
1851,91;62,69
1849,98;62,07
1848,05;61,45
1846,12;60,82
1844,19;60,26
1842,26;59,60
1840,33;58,78
1838,40;57,92
1836,47;56,99
1834,54;56,04
1832,61;55,01
1830,68;53,91
1828,75;52,73
1826,82;51,68
1824,89;50,67
1822,96;49,51
1821,03;48,31
1819,10;47,12
1817,17;45,90
1815,24;44,57
1813,31;43,31
1811,38;42,00
1809,45;40,70
1807,52;39,28
1805,59;37,77
1803,66;36,38
1801,73;34,96
1799,80;33,27
1797,87;31,59
1795,94;29,85
1794,01;28,04
1792,08;26,07
1790,15;24,01
1788,22;21,98
1786,29;19,94
1784,36;17,75
1782,43;15,58
1780,50;13,38
1778,57;11,19
1776,64;9,15
1774,71;7,25
1772,78;5,33
1770,85;3,58
1768,92;2,29
1766,99;1,29
1765,06;0,63
1763,13;0,28
1761,20;0,09
1759,27;0,04
1757,34;0,02
1755,41;0,02
1753,48;0,02
1751,55;0,03
1749,62;0,02
1747,69;0,03
1745,76;0,02
1743,83;0,03
1741,90;0,02
1739,97;0,02
1738,04;0,02
1736,11;0,03
1734,18;0,03
1732,25;0,02
1730,32;0,02
1728,39;0,02
1726,46;0,02
1724,53;0,03
1722,60;0,07
1720,67;0,15
1718,74;0,38
1716,81;0,81
1714,88;1,44
1712,95;2,13
1711,02;2,92
1709,09;3,68
1707,16;4,43
1705,23;5,17
1703,30;5,91
1701,37;6,75
1699,44;8,28
1697,51;9,88
1695,58;12,30
1693,65;14,94
1691,72;17,39
1689,79;20,10
1687,86;22,70
1685,93;24,98
1684,00;27,78
1682,07;30,16
1680,14;31,95
1678,21;33,44
1676,28;34,76
1674,35;36,22
1672,42;37,32
1670,49;38,30
1668,56;39,52
1666,63;40,62
1664,70;41,45
1662,77;42,48
1660,84;43,57
1658,91;44,45
1656,98;45,16
1655,05;45,83
1653,12;47,26
1651,19;48,69
1649,26;49,18
1647,33;49,84
1645,40;50,76
1643,47;51,47
1641,54;52,01
1639,61;52,53
1637,68;52,93
1635,75;53,33
1633,82;53,82
1631,89;54,17
1629,96;54,35
1628,03;54,52
1626,10;54,61
1624,17;54,50
1622,24;54,37
1620,31;54,10
1618,38;53,78
1616,45;53,61
1614,52;53,38
1612,59;52,89
1610,66;52,31
1608,73;51,97
1606,80;51,98
1604,87;52,08
1602,94;51,97
1601,01;51,66
1599,08;51,83
1597,15;52,83
1595,22;54,28
1593,29;55,57
1591,36;56,52
1589,43;57,19
1587,50;57,68
1585,57;58,04
1583,64;58,30
1581,71;58,39
1579,78;58,29
1577,85;58,75
1575,92;58,84
1573,99;58,95
1572,06;58,99
1570,13;59,01
1568,20;58,98
1566,27;58,92
1564,34;58,78
1562,41;58,65
1560,48;58,40
1558,55;57,82
1556,62;58,00
1554,69;57,68
1552,76;56,61
1550,83;56,31
1548,90;55,71
1546,97;54,94
1545,04;54,54
1543,11;54,04
1541,18;53,29
1539,25;52,64
1537,32;51,96
1535,39;50,97
1533,46;49,71
1531,53;48,18
1529,60;46,41
1527,67;44,53
1525,74;42,33
1523,81;39,93
1521,88;37,83
1519,95;35,92
1518,02;34,89
1516,09;34,69
1514,16;34,91
1512,23;35,02
1510,30;34,88
1508,37;34,76
1506,44;33,62
1504,51;31,77
1502,58;29,84
1500,65;27,39
1498,72;24,59
1496,79;21,62
1494,86;18,38
1492,93;15,01
1491,00;11,20
1489,07;7,05
1487,14;3,76
1485,21;1,66
1483,28;0,60
1481,35;0,15
1479,42;0,04
1477,49;0,02
1475,56;0,03
1473,63;0,03
1471,70;0,03
1469,77;0,02
1467,84;0,02
1465,91;0,02
1463,98;0,02
1462,05;0,02
1460,12;0,02
1458,19;0,03
1456,26;0,04
1454,33;0,08
1452,40;0,13
1450,47;0,24
1448,54;0,39
1446,61;0,63
1444,68;0,92
1442,75;1,23
1440,82;1,44
1438,89;1,60
1436,96;1,84
1435,03;2,26
1433,10;2,74
1431,17;3,31
1429,24;3,86
1427,31;4,22
1425,38;4,31
1423,45;4,08
1421,52;3,61
1419,59;3,01
1417,66;2,47
1415,73;2,29
1413,80;2,54
1411,87;3,19
1409,94;3,96
1408,01;4,39
1406,08;4,25
1404,15;3,54
1402,22;2,52
1400,29;1,46
1398,36;0,60
1396,43;0,16
1394,50;0,05
1392,57;0,04
1390,64;0,05
1388,71;0,05
1386,78;0,06
1384,85;0,05
1382,92;0,05
1380,99;0,05
1379,06;0,05
1377,13;0,08
1375,20;0,12
1373,27;0,13
1371,34;0,09
1369,41;0,05
1367,48;0,05
1365,55;0,04
1363,62;0,05
1361,69;0,05
1359,76;0,05
1357,83;0,07
1355,90;0,14
1353,97;0,25
1352,04;0,39
1350,11;0,56
1348,18;0,72
1346,25;0,92
1344,32;1,13
1342,39;1,33
1340,46;1,46
1338,53;1,48
1336,60;1,36
1334,67;1,17
1332,74;0,95
1330,81;0,75
1328,88;0,59
1326,95;0,49
1325,02;0,43
1323,09;0,43
1321,16;0,49
1319,23;0,60
1317,30;0,76
1315,37;0,92
1313,44;1,06
1311,51;1,14
1309,58;1,14
1307,65;1,04
1305,72;0,88
1303,79;0,67
1301,86;0,47
1299,93;0,31
1298,00;0,21
1296,07;0,15
1294,14;0,13
1292,21;0,12
1290,28;0,13
1288,35;0,12
1286,42;0,10
1284,49;0,06
1282,56;0,04
1280,63;0,02
1278,70;0,02
1276,77;0,03
1274,84;0,03
1272,91;0,02
1270,98;0,02
1269,05;0,02
1267,12;0,03
1265,19;0,03
1263,26;0,03
1261,33;0,03
1259,40;0,03
1257,47;0,02
1255,54;0,03
1253,61;0,02
1251,68;0,03
1249,75;0,02
1247,82;0,03
1245,89;0,03
1243,96;0,03
1242,03;0,03
1240,10;0,03
1238,17;0,02
1236,24;0,03
1234,31;0,03
1232,38;0,03
1230,45;0,03
1228,52;0,03
1226,59;0,03
1224,66;0,03
1222,73;0,03
1220,80;0,03
1218,87;0,03
1216,94;0,03
1215,01;0,03
1213,08;0,03
1211,15;0,03
1209,22;0,03
1207,29;0,03
1205,36;0,02
1203,43;0,03
1201,50;0,03
1199,57;0,03
1197,64;0,03
1195,71;0,03
1193,78;0,03
1191,85;0,03
1189,92;0,03
1187,99;0,03
1186,06;0,03
1184,13;0,03
1182,20;0,03
1180,27;0,03
1178,34;0,03
1176,41;0,03
1174,48;0,03
1172,55;0,03
1170,62;0,03
1168,69;0,03
1166,76;0,03
1164,83;0,03
1162,90;0,03
1160,97;0,03
1159,04;0,04
1157,11;0,04
1155,18;0,04
1153,25;0,04
1151,32;0,04
1149,39;0,04
1147,46;0,04
1145,53;0,04
1143,60;0,05
1141,67;0,04
1139,74;0,04
1137,81;0,04
1135,88;0,05
1133,95;0,05
1132,02;0,05
1130,09;0,04
1128,16;0,04
1126,23;0,04
1124,30;0,05
1122,37;0,05
1120,44;0,05
1118,51;0,05
1116,58;0,05
1114,65;0,05
1112,72;0,05
1110,79;0,06
1108,86;0,08
1106,93;0,11
1105,00;0,16
1103,07;0,23
1101,14;0,29
1099,21;0,32
1097,28;0,29
1095,35;0,23
1093,42;0,18
1091,49;0,14
1089,56;0,11
1087,63;0,08
1085,70;0,07
1083,77;0,07
1081,84;0,07
1079,91;0,08
1077,98;0,04
1076,05;0,06
1074,12;0,06
1072,19;0,08
1070,26;0,18
1068,33;0,52
1066,40;1,10
1064,47;1,77
1062,54;2,45
1060,61;3,12
1058,68;3,95
1056,75;5,03
1054,82;6,35
1052,89;7,67
1050,96;8,61
1049,03;8,84
1047,10;8,34
1045,17;7,26
1043,24;5,85
1041,31;4,36
1039,38;3,02
1037,45;1,95
1035,52;1,17
1033,59;0,66
1031,66;0,35
1029,73;0,18
1027,80;0,11
1025,87;0,09
1023,94;0,08
1022,01;0,08
1020,08;0,09
1018,15;0,09
1016,22;0,09
1014,29;0,09
1012,36;0,09
1010,43;0,09
1008,50;0,08
1006,57;0,07
1004,64;0,05
1002,71;0,06
1000,78;0,06
998,85;0,09
996,92;0,16
994,99;0,36
993,06;0,81
991,13;1,69
989,20;3,13
987,27;5,12
985,34;7,33
983,41;9,30
981,48;10,61
979,55;11,14
977,62;11,05
975,69;10,68
973,76;10,38
971,83;10,34
969,90;10,63
967,97;11,39
966,04;12,75
964,11;14,51
962,18;16,17
960,25;17,22
958,32;17,44
956,39;16,97
954,46;16,18
952,53;15,34
950,60;14,54
948,67;13,72
946,74;12,89
944,81;12,08
942,88;11,34
940,95;10,71
939,02;10,26
937,09;10,04
935,16;9,99
933,23;9,96
931,30;9,94
929,37;9,98
927,44;10,10
925,51;10,29
923,58;10,66
921,65;11,40
919,72;12,37
917,79;13,21
915,86;13,80
913,93;14,23
912,00;14,61
910,07;15,04
908,14;15,57
906,21;16,21
904,28;16,83
902,35;17,30
900,42;17,48
898,49;17,32
896,56;16,73
894,63;15,76
892,70;14,58
890,77;13,51
888,84;12,89
886,91;12,99
884,98;13,83
883,05;15,22
881,12;16,84
879,19;18,44
877,26;19,82
875,33;20,84
873,40;21,34
871,47;21,30
869,54;20,79
867,61;20,26
865,68;20,48
863,75;21,99
861,82;24,43
859,89;26,97
857,96;29,16
856,03;31,02
854,10;32,64
852,17;34,07
850,24;35,30
848,31;36,27
846,38;36,96
844,45;37,39
842,52;37,70
840,59;38,02
838,66;38,45
836,73;38,93
834,80;39,50
832,87;40,23
830,94;41,23
829,01;42,43
827,08;43,64
825,15;44,69
823,22;45,78
821,29;47,13
819,36;48,69
817,43;50,02
815,50;50,92
813,57;51,41
811,64;51,67
809,71;51,79
807,78;51,76
805,85;51,52
803,92;51,01
801,99;50,18
800,06;49,09
798,13;47,91
796,20;46,93
794,27;46,51
792,34;46,90
790,41;48,09
788,48;49,71
786,55;51,41
784,62;52,92
782,69;54,19
780,76;55,16
778,83;55,89
776,90;56,38
774,97;56,64
773,04;56,50
771,11;55,83
769,18;54,53
767,25;52,62
765,32;50,18
763,39;47,45
761,46;44,62
759,53;41,84
757,60;39,19
755,67;36,79
753,74;34,74
751,81;33,28
749,88;32,66
747,95;32,90
746,02;33,97
744,09;36,14
742,16;38,89
740,23;40,42
738,30;40,07
736,37;38,75
734,44;37,42
732,51;36,45
730,58;35,91
728,65;35,96
726,72;37,01
724,79;39,00
722,86;41,42
720,93;43,77
719,00;45,98
717,07;47,86
715,14;49,38
713,21;50,59
711,28;51,68
709,35;52,72
707,42;53,85
705,49;55,11
703,56;56,58
701,63;58,18
699,70;59,96
697,77;61,87
695,84;63,76
693,91;65,35
691,98;66,61
690,05;67,62
688,12;68,56
686,19;69,33
684,26;69,87
682,33;70,19
680,40;70,31
678,47;70,29
676,54;70,10
674,61;69,77
672,68;69,33
670,75;68,90
668,82;68,44
666,89;67,24
664,96;65,82
663,03;64,34
661,10;62,71
659,17;60,96
657,24;59,05
655,31;56,88
653,38;54,59
651,45;52,18
649,52;49,85
647,59;47,68
645,66;46,00
643,73;44,80
641,80;44,09
639,87;43,81
637,94;43,88
636,01;44,22
634,08;44,77
632,15;45,32
630,22;45,74
628,29;46,03
626,36;46,18
624,43;46,25
622,50;46,16
620,57;46,00
618,64;45,76
616,71;45,55
614,78;45,42
612,85;45,44
610,92;45,59
608,99;45,93
607,06;46,33
605,13;46,77
603,20;47,09
601,27;47,29
599,34;47,41
597,41;47,43
595,48;47,27
593,55;47,04
591,62;46,91
589,69;46,97
587,76;47,14
585,83;47,61
583,90;48,47
581,97;49,64
580,04;51,09
578,11;52,57
576,18;54,01
574,25;55,29
572,32;56,16
570,39;56,74
568,46;57,16
566,53;57,52
564,60;57,83
562,67;58,14
560,74;58,46
558,81;58,78
556,88;59,03
554,95;59,20
553,02;59,22
551,09;59,06
549,16;58,92
547,23;58,94
545,30;59,18
543,37;59,50
541,44;59,77
539,51;59,96
537,58;60,05
535,65;60,07
533,72;60,04
531,79;59,97
529,86;59,82
527,93;59,65
526,00;59,44
524,07;59,21
522,14;59,01
520,21;58,87
518,28;58,75
516,35;58,67
514,42;58,61
512,49;58,52
510,56;58,40
508,63;58,39
506,70;58,41
504,77;58,32
502,84;58,31
500,91;58,72
