Created as New Dataset;Amostra 409 por Laboratório data terça-feira, setembro 24 2024
cm-1;%T
4000,00;63,41
3998,07;63,53
3996,14;63,65
3994,21;63,79
3992,28;63,93
3990,35;64,09
3988,42;64,26
3986,49;64,42
3984,56;64,59
3982,63;64,76
3980,70;64,93
3978,77;65,08
3976,84;65,21
3974,91;65,34
3972,98;65,45
3971,05;65,55
3969,12;65,64
3967,19;65,72
3965,26;65,79
3963,33;65,86
3961,40;65,92
3959,47;65,97
3957,54;66,03
3955,61;66,07
3953,68;66,12
3951,75;66,15
3949,82;66,19
3947,89;66,22
3945,96;66,25
3944,03;66,28
3942,10;66,30
3940,17;66,32
3938,24;66,33
3936,31;66,34
3934,38;66,35
3932,45;66,36
3930,52;66,37
3928,59;66,38
3926,66;66,39
3924,73;66,39
3922,80;66,41
3920,87;66,41
3918,94;66,43
3917,01;66,44
3915,08;66,44
3913,15;66,45
3911,22;66,46
3909,29;66,47
3907,36;66,48
3905,43;66,50
3903,50;66,53
3901,57;66,56
3899,64;66,58
3897,71;66,61
3895,78;66,63
3893,85;66,65
3891,92;66,67
3889,99;66,70
3888,06;66,72
3886,13;66,73
3884,20;66,77
3882,27;66,79
3880,34;66,82
3878,41;66,85
3876,48;66,86
3874,55;66,90
3872,62;66,94
3870,69;66,96
3868,76;67,01
3866,83;67,05
3864,90;67,09
3862,97;67,13
3861,04;67,16
3859,11;67,19
3857,18;67,21
3855,25;67,21
3853,32;67,25
3851,39;67,27
3849,46;67,29
3847,53;67,32
3845,60;67,34
3843,67;67,35
3841,74;67,36
3839,81;67,38
3837,88;67,40
3835,95;67,43
3834,02;67,46
3832,09;67,48
3830,16;67,50
3828,23;67,51
3826,30;67,52
3824,37;67,55
3822,44;67,56
3820,51;67,61
3818,58;67,66
3816,65;67,71
3814,72;67,79
3812,79;67,84
3810,86;67,91
3808,93;67,98
3807,00;68,04
3805,07;68,12
3803,14;68,17
3801,21;68,25
3799,28;68,32
3797,35;68,37
3795,42;68,43
3793,49;68,47
3791,56;68,50
3789,63;68,53
3787,70;68,58
3785,77;68,63
3783,84;68,69
3781,91;68,75
3779,98;68,83
3778,05;68,91
3776,12;68,98
3774,19;69,05
3772,26;69,12
3770,33;69,18
3768,40;69,24
3766,47;69,29
3764,54;69,34
3762,61;69,39
3760,68;69,44
3758,75;69,49
3756,82;69,54
3754,89;69,59
3752,96;69,65
3751,03;69,71
3749,10;69,77
3747,17;69,82
3745,24;69,85
3743,31;69,89
3741,38;69,91
3739,45;69,95
3737,52;69,99
3735,59;70,02
3733,66;70,06
3731,73;70,09
3729,80;70,11
3727,87;70,13
3725,94;70,16
3724,01;70,20
3722,08;70,24
3720,15;70,28
3718,22;70,32
3716,29;70,35
3714,36;70,37
3712,43;70,39
3710,50;70,42
3708,57;70,42
3706,64;70,43
3704,71;70,44
3702,78;70,44
3700,85;70,43
3698,92;70,42
3696,99;70,42
3695,06;70,42
3693,13;70,42
3691,20;70,42
3689,27;70,42
3687,34;70,43
3685,41;70,43
3683,48;70,43
3681,55;70,43
3679,62;70,41
3677,69;70,40
3675,76;70,38
3673,83;70,37
3671,90;70,34
3669,97;70,29
3668,04;70,22
3666,11;70,12
3664,18;70,03
3662,25;69,92
3660,32;69,79
3658,39;69,66
3656,46;69,50
3654,53;69,35
3652,60;69,19
3650,67;69,03
3648,74;68,90
3646,81;68,77
3644,88;68,68
3642,95;68,61
3641,02;68,55
3639,09;68,48
3637,16;68,39
3635,23;68,30
3633,30;68,20
3631,37;68,09
3629,44;67,96
3627,51;67,83
3625,58;67,70
3623,65;67,58
3621,72;67,47
3619,79;67,34
3617,86;67,22
3615,93;67,11
3614,00;67,00
3612,07;66,91
3610,14;66,81
3608,21;66,73
3606,28;66,68
3604,35;66,66
3602,42;66,69
3600,49;66,75
3598,56;66,82
3596,63;66,90
3594,70;66,96
3592,77;67,00
3590,84;67,01
3588,91;66,98
3586,98;66,92
3585,05;66,84
3583,12;66,76
3581,19;66,67
3579,26;66,56
3577,33;66,45
3575,40;66,33
3573,47;66,21
3571,54;66,09
3569,61;65,98
3567,68;65,86
3565,75;65,75
3563,82;65,63
3561,89;65,50
3559,96;65,37
3558,03;65,24
3556,10;65,10
3554,17;64,97
3552,24;64,83
3550,31;64,69
3548,38;64,54
3546,45;64,38
3544,52;64,23
3542,59;64,08
3540,66;63,94
3538,73;63,78
3536,80;63,62
3534,87;63,47
3532,94;63,32
3531,01;63,18
3529,08;63,02
3527,15;62,86
3525,22;62,70
3523,29;62,54
3521,36;62,39
3519,43;62,24
3517,50;62,09
3515,57;61,93
3513,64;61,77
3511,71;61,62
3509,78;61,48
3507,85;61,33
3505,92;61,19
3503,99;61,03
3502,06;60,88
3500,13;60,74
3498,20;60,60
3496,27;60,46
3494,34;60,32
3492,41;60,17
3490,48;60,03
3488,55;59,89
3486,62;59,76
3484,69;59,62
3482,76;59,49
3480,83;59,36
3478,90;59,24
3476,97;59,12
3475,04;59,00
3473,11;58,89
3471,18;58,77
3469,25;58,66
3467,32;58,56
3465,39;58,48
3463,46;58,39
3461,53;58,30
3459,60;58,22
3457,67;58,15
3455,74;58,07
3453,81;58,00
3451,88;57,93
3449,95;57,86
3448,02;57,80
3446,09;57,73
3444,16;57,67
3442,23;57,61
3440,30;57,56
3438,37;57,51
3436,44;57,47
3434,51;57,44
3432,58;57,43
3430,65;57,42
3428,72;57,41
3426,79;57,41
3424,86;57,40
3422,93;57,39
3421,00;57,38
3419,07;57,37
3417,14;57,35
3415,21;57,33
3413,28;57,32
3411,35;57,30
3409,42;57,28
3407,49;57,26
3405,56;57,25
3403,63;57,23
3401,70;57,21
3399,77;57,20
3397,84;57,19
3395,91;57,18
3393,98;57,17
3392,05;57,15
3390,12;57,14
3388,19;57,14
3386,26;57,14
3384,33;57,14
3382,40;57,14
3380,47;57,14
3378,54;57,15
3376,61;57,16
3374,68;57,17
3372,75;57,19
3370,82;57,20
3368,89;57,22
3366,96;57,25
3365,03;57,29
3363,10;57,32
3361,17;57,36
3359,24;57,39
3357,31;57,43
3355,38;57,47
3353,45;57,52
3351,52;57,55
3349,59;57,60
3347,66;57,65
3345,73;57,70
3343,80;57,76
3341,87;57,81
3339,94;57,87
3338,01;57,93
3336,08;58,01
3334,15;58,08
3332,22;58,16
3330,29;58,24
3328,36;58,32
3326,43;58,39
3324,50;58,48
3322,57;58,56
3320,64;58,64
3318,71;58,72
3316,78;58,79
3314,85;58,87
3312,92;58,94
3310,99;59,00
3309,06;59,06
3307,13;59,11
3305,20;59,17
3303,27;59,24
3301,34;59,30
3299,41;59,35
3297,48;59,40
3295,55;59,44
3293,62;59,48
3291,69;59,52
3289,76;59,57
3287,83;59,61
3285,90;59,64
3283,97;59,67
3282,04;59,70
3280,11;59,73
3278,18;59,75
3276,25;59,77
3274,32;59,78
3272,39;59,79
3270,46;59,80
3268,53;59,82
3266,60;59,83
3264,67;59,83
3262,74;59,82
3260,81;59,82
3258,88;59,81
3256,95;59,79
3255,02;59,77
3253,09;59,75
3251,16;59,72
3249,23;59,68
3247,30;59,63
3245,37;59,58
3243,44;59,52
3241,51;59,46
3239,58;59,38
3237,65;59,29
3235,72;59,19
3233,79;59,07
3231,86;58,95
3229,93;58,83
3228,00;58,68
3226,07;58,52
3224,14;58,34
3222,21;58,16
3220,28;57,95
3218,35;57,74
3216,42;57,51
3214,49;57,27
3212,56;57,02
3210,63;56,76
3208,70;56,50
3206,77;56,23
3204,84;55,96
3202,91;55,69
3200,98;55,43
3199,05;55,18
3197,12;54,94
3195,19;54,71
3193,26;54,50
3191,33;54,30
3189,40;54,12
3187,47;53,97
3185,54;53,83
3183,61;53,71
3181,68;53,62
3179,75;53,54
3177,82;53,47
3175,89;53,43
3173,96;53,40
3172,03;53,38
3170,10;53,38
3168,17;53,40
3166,24;53,42
3164,31;53,46
3162,38;53,50
3160,45;53,55
3158,52;53,60
3156,59;53,66
3154,66;53,71
3152,73;53,77
3150,80;53,84
3148,87;53,91
3146,94;53,97
3145,01;54,02
3143,08;54,08
3141,15;54,12
3139,22;54,16
3137,29;54,19
3135,36;54,22
3133,43;54,23
3131,50;54,23
3129,57;54,23
3127,64;54,21
3125,71;54,18
3123,78;54,14
3121,85;54,08
3119,92;54,01
3117,99;53,93
3116,06;53,84
3114,13;53,74
3112,20;53,61
3110,27;53,46
3108,34;53,28
3106,41;53,10
3104,48;52,90
3102,55;52,69
3100,62;52,48
3098,69;52,25
3096,76;51,99
3094,83;51,69
3092,90;51,36
3090,97;50,98
3089,04;50,56
3087,11;50,09
3085,18;49,59
3083,25;49,06
3081,32;48,48
3079,39;47,85
3077,46;47,18
3075,53;46,49
3073,60;45,81
3071,67;45,12
3069,74;44,44
3067,81;43,76
3065,88;43,07
3063,95;42,40
3062,02;41,77
3060,09;41,18
3058,16;40,60
3056,23;40,00
3054,30;39,37
3052,37;38,70
3050,44;37,99
3048,51;37,25
3046,58;36,47
3044,65;35,68
3042,72;34,87
3040,79;34,04
3038,86;33,20
3036,93;32,31
3035,00;31,37
3033,07;30,35
3031,14;29,26
3029,21;28,10
3027,28;26,89
3025,35;25,63
3023,42;24,32
3021,49;22,96
3019,56;21,57
3017,63;20,15
3015,70;18,72
3013,77;17,27
3011,84;15,79
3009,91;14,27
3007,98;12,71
3006,05;11,13
3004,12;9,57
3002,19;8,07
3000,26;6,66
2998,33;5,38
2996,40;4,24
2994,47;3,26
2992,54;2,44
2990,61;1,78
2988,68;1,26
2986,75;0,85
2984,82;0,54
2982,89;0,32
2980,96;0,19
2979,03;0,11
2977,10;0,07
2975,17;0,05
2973,24;0,05
2971,31;0,04
2969,38;0,04
2967,45;0,04
2965,52;0,04
2963,59;0,04
2961,66;0,04
2959,73;0,04
2957,80;0,04
2955,87;0,04
2953,94;0,04
2952,01;0,04
2950,08;0,03
2948,15;0,03
2946,22;0,04
2944,29;0,04
2942,36;0,03
2940,43;0,03
2938,50;0,03
2936,57;0,03
2934,64;0,04
2932,71;0,04
2930,78;0,04
2928,85;0,04
2926,92;0,04
2924,99;0,04
2923,06;0,04
2921,13;0,04
2919,20;0,04
2917,27;0,03
2915,34;0,03
2913,41;0,03
2911,48;0,03
2909,55;0,03
2907,62;0,03
2905,69;0,03
2903,76;0,03
2901,83;0,03
2899,90;0,03
2897,97;0,03
2896,04;0,03
2894,11;0,03
2892,18;0,03
2890,25;0,03
2888,32;0,03
2886,39;0,03
2884,46;0,03
2882,53;0,03
2880,60;0,03
2878,67;0,03
2876,74;0,03
2874,81;0,03
2872,88;0,03
2870,95;0,03
2869,02;0,03
2867,09;0,04
2865,16;0,04
2863,23;0,04
2861,30;0,04
2859,37;0,04
2857,44;0,04
2855,51;0,04
2853,58;0,04
2851,65;0,05
2849,72;0,04
2847,79;0,05
2845,86;0,05
2843,93;0,05
2842,00;0,05
2840,07;0,05
2838,14;0,05
2836,21;0,09
2834,28;0,17
2832,35;0,34
2830,42;0,62
2828,49;1,03
2826,56;1,56
2824,63;2,19
2822,70;2,91
2820,77;3,71
2818,84;4,59
2816,91;5,52
2814,98;6,52
2813,05;7,58
2811,12;8,69
2809,19;9,86
2807,26;11,09
2805,33;12,34
2803,40;13,61
2801,47;14,89
2799,54;16,15
2797,61;17,41
2795,68;18,66
2793,75;19,91
2791,82;21,17
2789,89;22,44
2787,96;23,74
2786,03;25,06
2784,10;26,39
2782,17;27,71
2780,24;29,00
2778,31;30,24
2776,38;31,41
2774,45;32,50
2772,52;33,49
2770,59;34,37
2768,66;35,15
2766,73;35,82
2764,80;36,36
2762,87;36,79
2760,94;37,13
2759,01;37,41
2757,08;37,67
2755,15;37,91
2753,22;38,09
2751,29;38,18
2749,36;38,18
2747,43;38,08
2745,50;37,87
2743,57;37,54
2741,64;37,09
2739,71;36,50
2737,78;35,77
2735,85;34,90
2733,92;33,96
2731,99;33,06
2730,06;32,40
2728,13;32,08
2726,20;32,07
2724,27;32,27
2722,34;32,62
2720,41;33,11
2718,48;33,75
2716,55;34,54
2714,62;35,45
2712,69;36,40
2710,76;37,27
2708,83;37,99
2706,90;38,55
2704,97;38,94
2703,04;39,20
2701,11;39,33
2699,18;39,34
2697,25;39,26
2695,32;39,10
2693,39;38,88
2691,46;38,62
2689,53;38,37
2687,60;38,15
2685,67;38,00
2683,74;37,90
2681,81;37,84
2679,88;37,81
2677,95;37,79
2676,02;37,78
2674,09;37,78
2672,16;37,81
2670,23;37,92
2668,30;38,14
2666,37;38,48
2664,44;38,90
2662,51;39,37
2660,58;39,87
2658,65;40,38
2656,72;40,87
2654,79;41,33
2652,86;41,74
2650,93;42,11
2649,00;42,44
2647,07;42,75
2645,14;43,04
2643,21;43,31
2641,28;43,56
2639,35;43,80
2637,42;44,03
2635,49;44,23
2633,56;44,42
2631,63;44,60
2629,70;44,78
2627,77;44,96
2625,84;45,14
2623,91;45,33
2621,98;45,52
2620,05;45,71
2618,12;45,91
2616,19;46,12
2614,26;46,34
2612,33;46,58
2610,40;46,83
2608,47;47,09
2606,54;47,37
2604,61;47,66
2602,68;47,97
2600,75;48,30
2598,82;48,66
2596,89;49,05
2594,96;49,46
2593,03;49,88
2591,10;50,33
2589,17;50,80
2587,24;51,29
2585,31;51,80
2583,38;52,32
2581,45;52,86
2579,52;53,41
2577,59;53,96
2575,66;54,51
2573,73;55,05
2571,80;55,59
2569,87;56,11
2567,94;56,61
2566,01;57,10
2564,08;57,55
2562,15;57,98
2560,22;58,39
2558,29;58,77
2556,36;59,13
2554,43;59,48
2552,50;59,80
2550,57;60,10
2548,64;60,38
2546,71;60,66
2544,78;60,92
2542,85;61,17
2540,92;61,41
2538,99;61,64
2537,06;61,86
2535,13;62,07
2533,20;62,29
2531,27;62,53
2529,34;62,79
2527,41;63,06
2525,48;63,36
2523,55;63,65
2521,62;63,95
2519,69;64,24
2517,76;64,53
2515,83;64,80
2513,90;65,07
2511,97;65,33
2510,04;65,58
2508,11;65,82
2506,18;66,04
2504,25;66,24
2502,32;66,44
2500,39;66,63
2498,46;66,81
2496,53;66,98
2494,60;67,14
2492,67;67,29
2490,74;67,43
2488,81;67,55
2486,88;67,66
2484,95;67,76
2483,02;67,85
2481,09;67,94
2479,16;68,02
2477,23;68,10
2475,30;68,18
2473,37;68,25
2471,44;68,31
2469,51;68,37
2467,58;68,43
2465,65;68,48
2463,72;68,52
2461,79;68,56
2459,86;68,59
2457,93;68,62
2456,00;68,63
2454,07;68,65
2452,14;68,65
2450,21;68,66
2448,28;68,66
2446,35;68,66
2444,42;68,65
2442,49;68,64
2440,56;68,61
2438,63;68,58
2436,70;68,55
2434,77;68,51
2432,84;68,47
2430,91;68,42
2428,98;68,38
2427,05;68,33
2425,12;68,28
2423,19;68,24
2421,26;68,20
2419,33;68,15
2417,40;68,10
2415,47;68,05
2413,54;68,01
2411,61;67,97
2409,68;67,94
2407,75;67,92
2405,82;67,91
2403,89;67,91
2401,96;67,92
2400,03;67,94
2398,10;67,98
2396,17;68,02
2394,24;68,08
2392,31;68,13
2390,38;68,17
2388,45;68,20
2386,52;68,23
2384,59;68,24
2382,66;68,23
2380,73;68,20
2378,80;68,17
2376,87;68,14
2374,94;68,14
2373,01;68,16
2371,08;68,19
2369,15;68,21
2367,22;68,22
2365,29;68,21
2363,36;68,21
2361,43;68,19
2359,50;68,19
2357,57;68,19
2355,64;68,20
2353,71;68,23
2351,78;68,26
2349,85;68,20
2347,92;68,17
2345,99;68,24
2344,06;68,29
2342,13;68,30
2340,20;68,32
2338,27;68,35
2336,34;68,37
2334,41;68,39
2332,48;68,41
2330,55;68,45
2328,62;68,49
2326,69;68,52
2324,76;68,55
2322,83;68,57
2320,90;68,61
2318,97;68,66
2317,04;68,73
2315,11;68,80
2313,18;68,89
2311,25;68,98
2309,32;69,09
2307,39;69,20
2305,46;69,30
2303,53;69,40
2301,60;69,50
2299,67;69,59
2297,74;69,68
2295,81;69,78
2293,88;69,87
2291,95;69,96
2290,02;70,05
2288,09;70,13
2286,16;70,22
2284,23;70,30
2282,30;70,40
2280,37;70,51
2278,44;70,64
2276,51;70,77
2274,58;70,88
2272,65;70,98
2270,72;71,07
2268,79;71,15
2266,86;71,23
2264,93;71,32
2263,00;71,40
2261,07;71,48
2259,14;71,56
2257,21;71,64
2255,28;71,72
2253,35;71,79
2251,42;71,86
2249,49;71,93
2247,56;71,99
2245,63;72,06
2243,70;72,11
2241,77;72,16
2239,84;72,21
2237,91;72,26
2235,98;72,29
2234,05;72,33
2232,12;72,36
2230,19;72,39
2228,26;72,42
2226,33;72,44
2224,40;72,46
2222,47;72,49
2220,54;72,51
2218,61;72,53
2216,68;72,54
2214,75;72,56
2212,82;72,56
2210,89;72,56
2208,96;72,56
2207,03;72,56
2205,10;72,56
2203,17;72,55
2201,24;72,55
2199,31;72,54
2197,38;72,53
2195,45;72,51
2193,52;72,48
2191,59;72,46
2189,66;72,44
2187,73;72,43
2185,80;72,43
2183,87;72,44
2181,94;72,46
2180,01;72,44
2178,08;72,44
2176,15;72,53
2174,22;72,64
2172,29;72,70
2170,36;72,72
2168,43;72,76
2166,50;72,80
2164,57;72,85
2162,64;72,90
2160,71;72,94
2158,78;72,99
2156,85;73,04
2154,92;73,10
2152,99;73,17
2151,06;73,25
2149,13;73,36
2147,20;73,49
2145,27;73,65
2143,34;73,82
2141,41;74,00
2139,48;74,15
2137,55;74,29
2135,62;74,40
2133,69;74,50
2131,76;74,58
2129,83;74,66
2127,90;74,73
2125,97;74,79
2124,04;74,84
2122,11;74,89
2120,18;74,94
2118,25;74,98
2116,32;75,01
2114,39;75,05
2112,46;75,08
2110,53;75,11
2108,60;75,14
2106,67;75,17
2104,74;75,20
2102,81;75,22
2100,88;75,25
2098,95;75,27
2097,02;75,29
2095,09;75,31
2093,16;75,33
2091,23;75,34
2089,30;75,35
2087,37;75,35
2085,44;75,35
2083,51;75,36
2081,58;75,36
2079,65;75,36
2077,72;75,36
2075,79;75,35
2073,86;75,34
2071,93;75,32
2070,00;75,31
2068,07;75,30
2066,14;75,27
2064,21;75,22
2062,28;75,18
2060,35;75,13
2058,42;75,08
2056,49;75,02
2054,56;74,97
2052,63;74,90
2050,70;74,83
2048,77;74,76
2046,84;74,68
2044,91;74,61
2042,98;74,54
2041,05;74,45
2039,12;74,38
2037,19;74,32
2035,26;74,29
2033,33;74,28
2031,40;74,28
2029,47;74,31
2027,54;74,36
2025,61;74,43
2023,68;74,54
2021,75;74,71
2019,82;74,92
2017,89;75,14
2015,96;75,36
2014,03;75,59
2012,10;75,82
2010,17;76,03
2008,24;76,20
2006,31;76,35
2004,38;76,47
2002,45;76,58
2000,52;76,67
1998,59;76,74
1996,66;76,84
1994,73;76,94
1992,80;77,00
1990,87;77,02
1988,94;77,03
1987,01;77,03
1985,08;77,05
1983,15;77,07
1981,22;77,09
1979,29;77,11
1977,36;77,13
1975,43;77,14
1973,50;77,15
1971,57;77,19
1969,64;77,25
1967,71;77,24
1965,78;77,20
1963,85;77,17
1961,92;77,16
1959,99;77,14
1958,06;77,14
1956,13;77,12
1954,20;77,09
1952,27;77,06
1950,34;77,07
1948,41;77,09
1946,48;77,12
1944,55;77,10
1942,62;76,97
1940,69;76,81
1938,76;76,71
1936,83;76,68
1934,90;76,69
1932,97;76,70
1931,04;76,68
1929,11;76,67
1927,18;76,71
1925,25;76,78
1923,32;76,75
1921,39;76,63
1919,46;76,50
1917,53;76,43
1915,60;76,35
1913,67;76,34
1911,74;76,35
1909,81;76,30
1907,88;76,20
1905,95;76,12
1904,02;76,07
1902,09;76,05
1900,16;76,05
1898,23;76,10
1896,30;76,10
1894,37;76,06
1892,44;76,04
1890,51;76,02
1888,58;75,97
1886,65;75,94
1884,72;75,92
1882,79;75,90
1880,86;75,91
1878,93;75,92
1877,00;75,95
1875,07;76,01
1873,14;76,13
1871,21;76,30
1869,28;76,44
1867,35;76,37
1865,42;76,30
1863,49;76,29
1861,56;76,33
1859,63;76,36
1857,70;76,38
1855,77;76,39
1853,84;76,43
1851,91;76,48
1849,98;76,59
1848,05;76,62
1846,12;76,55
1844,19;76,56
1842,26;76,59
1840,33;76,58
1838,40;76,58
1836,47;76,53
1834,54;76,55
1832,61;76,63
1830,68;76,70
1828,75;76,64
1826,82;76,54
1824,89;76,48
1822,96;76,39
1821,03;76,32
1819,10;76,27
1817,17;76,24
1815,24;76,24
1813,31;76,29
1811,38;76,24
1809,45;76,13
1807,52;76,01
1805,59;75,96
1803,66;75,94
1801,73;75,92
1799,80;75,81
1797,87;75,73
1795,94;75,60
1794,01;75,47
1792,08;75,30
1790,15;75,08
1788,22;74,79
1786,29;74,53
1784,36;74,30
1782,43;74,00
1780,50;73,53
1778,57;73,08
1776,64;72,81
1774,71;72,63
1772,78;72,51
1770,85;72,37
1768,92;72,33
1766,99;72,47
1765,06;72,58
1763,13;72,64
1761,20;72,73
1759,27;72,67
1757,34;72,51
1755,41;72,31
1753,48;72,08
1751,55;71,94
1749,62;71,58
1747,69;70,91
1745,76;70,16
1743,83;69,30
1741,90;68,38
1739,97;67,59
1738,04;66,93
1736,11;66,36
1734,18;66,09
1732,25;65,80
1730,32;65,41
1728,39;65,04
1726,46;64,73
1724,53;64,25
1722,60;63,39
1720,67;62,17
1718,74;60,26
1716,81;57,02
1714,88;53,61
1712,95;50,72
1711,02;48,54
1709,09;47,09
1707,16;46,42
1705,23;46,35
1703,30;46,60
1701,37;47,53
1699,44;49,54
1697,51;50,92
1695,58;52,49
1693,65;54,22
1691,72;55,65
1689,79;57,08
1687,86;58,26
1685,93;59,20
1684,00;60,14
1682,07;60,86
1680,14;61,21
1678,21;61,42
1676,28;61,75
1674,35;62,37
1672,42;62,78
1670,49;63,00
1668,56;63,20
1666,63;63,39
1664,70;63,55
1662,77;63,73
1660,84;63,85
1658,91;64,01
1656,98;64,13
1655,05;64,18
1653,12;64,19
1651,19;64,50
1649,26;64,64
1647,33;64,42
1645,40;64,21
1643,47;64,14
1641,54;64,18
1639,61;64,39
1637,68;64,56
1635,75;64,47
1633,82;64,55
1631,89;64,57
1629,96;64,64
1628,03;64,69
1626,10;64,68
1624,17;64,58
1622,24;64,35
1620,31;64,02
1618,38;63,57
1616,45;62,85
1614,52;62,11
1612,59;61,40
1610,66;60,63
1608,73;59,80
1606,80;59,18
1604,87;58,98
1602,94;59,10
1601,01;59,43
1599,08;59,98
1597,15;60,64
1595,22;61,18
1593,29;61,47
1591,36;61,52
1589,43;61,44
1587,50;61,35
1585,57;61,27
1583,64;61,11
1581,71;60,90
1579,78;60,67
1577,85;60,35
1575,92;59,82
1573,99;59,41
1572,06;59,04
1570,13;58,64
1568,20;58,13
1566,27;57,69
1564,34;57,20
1562,41;56,68
1560,48;56,44
1558,55;55,62
1556,62;54,83
1554,69;54,07
1552,76;53,35
1550,83;52,59
1548,90;51,72
1546,97;50,98
1545,04;50,37
1543,11;49,67
1541,18;48,75
1539,25;47,36
1537,32;46,37
1535,39;45,55
1533,46;44,57
1531,53;43,52
1529,60;42,63
1527,67;41,63
1525,74;40,57
1523,81;39,46
1521,88;38,09
1519,95;36,53
1518,02;35,16
1516,09;33,65
1514,16;32,57
1512,23;31,91
1510,30;31,44
1508,37;30,68
1506,44;29,08
1504,51;27,61
1502,58;26,52
1500,65;25,45
1498,72;24,29
1496,79;22,80
1494,86;21,09
1492,93;19,39
1491,00;17,48
1489,07;15,31
1487,14;13,33
1485,21;11,59
1483,28;9,84
1481,35;7,95
1479,42;6,01
1477,49;4,22
1475,56;2,59
1473,63;1,31
1471,70;0,44
1469,77;0,11
1467,84;0,03
1465,91;0,03
1463,98;0,02
1462,05;0,02
1460,12;0,02
1458,19;0,03
1456,26;0,02
1454,33;0,03
1452,40;0,03
1450,47;0,06
1448,54;0,08
1446,61;0,16
1444,68;0,25
1442,75;0,46
1440,82;0,76
1438,89;1,21
1436,96;2,00
1435,03;3,30
1433,10;5,00
1431,17;7,34
1429,24;10,15
1427,31;12,82
1425,38;15,13
1423,45;17,19
1421,52;18,80
1419,59;20,36
1417,66;21,79
1415,73;22,87
1413,80;23,71
1411,87;24,42
1409,94;24,91
1408,01;25,26
1406,08;25,42
1404,15;25,45
1402,22;25,31
1400,29;25,00
1398,36;24,26
1396,43;22,90
1394,50;20,61
1392,57;17,71
1390,64;14,56
1388,71;11,06
1386,78;7,32
1384,85;4,30
1382,92;2,33
1380,99;1,08
1379,06;0,40
1377,13;0,21
1375,20;0,39
1373,27;1,06
1371,34;1,95
1369,41;2,44
1367,48;2,42
1365,55;2,91
1363,62;4,89
1361,69;8,02
1359,76;10,86
1357,83;12,76
1355,90;13,86
1353,97;14,50
1352,04;15,09
1350,11;15,93
1348,18;16,96
1346,25;17,95
1344,32;18,71
1342,39;19,32
1340,46;20,09
1338,53;21,30
1336,60;22,83
1334,67;24,42
1332,74;25,95
1330,81;27,32
1328,88;28,43
1326,95;29,30
1325,02;29,91
1323,09;30,27
1321,16;30,33
1319,23;30,09
1317,30;29,66
1315,37;29,19
1313,44;28,68
1311,51;28,18
1309,58;27,74
1307,65;27,42
1305,72;27,25
1303,79;27,29
1301,86;27,57
1299,93;28,13
1298,00;28,92
1296,07;29,83
1294,14;30,75
1292,21;31,61
1290,28;32,39
1288,35;33,09
1286,42;33,68
1284,49;34,16
1282,56;34,51
1280,63;34,75
1278,70;34,91
1276,77;35,02
1274,84;35,17
1272,91;35,38
1270,98;35,67
1269,05;36,04
1267,12;36,41
1265,19;36,73
1263,26;36,97
1261,33;37,21
1259,40;37,49
1257,47;37,73
1255,54;37,85
1253,61;37,81
1251,68;37,66
1249,75;37,43
1247,82;37,18
1245,89;36,93
1243,96;36,68
1242,03;36,32
1240,10;35,69
1238,17;34,63
1236,24;33,24
1234,31;31,90
1232,38;31,06
1230,45;30,89
1228,52;31,27
1226,59;31,91
1224,66;32,64
1222,73;33,36
1220,80;34,03
1218,87;34,62
1216,94;35,14
1215,01;35,59
1213,08;35,97
1211,15;36,27
1209,22;36,51
1207,29;36,75
1205,36;37,02
1203,43;37,30
1201,50;37,53
1199,57;37,70
1197,64;37,79
1195,71;37,78
1193,78;37,71
1191,85;37,64
1189,92;37,57
1187,99;37,49
1186,06;37,36
1184,13;37,08
1182,20;36,60
1180,27;36,09
1178,34;35,66
1176,41;35,10
1174,48;34,22
1172,55;33,20
1170,62;32,46
1168,69;32,33
1166,76;32,71
1164,83;33,14
1162,90;33,27
1160,97;33,07
1159,04;32,73
1157,11;32,46
1155,18;32,38
1153,25;32,55
1151,32;32,98
1149,39;33,63
1147,46;34,44
1145,53;35,38
1143,60;36,41
1141,67;37,45
1139,74;38,46
1137,81;39,35
1135,88;40,08
1133,95;40,66
1132,02;41,10
1130,09;41,37
1128,16;41,51
1126,23;41,60
1124,30;41,65
1122,37;41,74
1120,44;41,95
1118,51;42,28
1116,58;42,58
1114,65;42,75
1112,72;42,81
1110,79;42,86
1108,86;42,95
1106,93;43,00
1105,00;42,93
1103,07;42,71
1101,14;42,33
1099,21;41,83
1097,28;41,25
1095,35;40,67
1093,42;40,16
1091,49;39,85
1089,56;39,76
1087,63;39,84
1085,70;39,95
1083,77;40,00
1081,84;39,96
1079,91;39,91
1077,98;39,90
1076,05;40,03
1074,12;40,43
1072,19;40,99
1070,26;41,42
1068,33;41,71
1066,40;41,91
1064,47;41,96
1062,54;41,97
1060,61;42,11
1058,68;42,42
1056,75;42,77
1054,82;43,09
1052,89;43,32
1050,96;43,45
1049,03;43,46
1047,10;43,32
1045,17;43,01
1043,24;42,57
1041,31;41,96
1039,38;41,19
1037,45;40,26
1035,52;39,24
1033,59;38,26
1031,66;37,51
1029,73;37,17
1027,80;37,30
1025,87;37,78
1023,94;38,44
1022,01;39,14
1020,08;39,77
1018,15;40,20
1016,22;40,35
1014,29;40,22
1012,36;39,89
1010,43;39,44
1008,50;38,86
1006,57;38,16
1004,64;37,33
1002,71;36,43
1000,78;35,58
998,85;34,88
996,92;34,36
994,99;33,97
993,06;33,61
991,13;33,22
989,20;32,68
987,27;31,91
985,34;30,84
983,41;29,52
981,48;28,07
979,55;26,70
977,62;25,58
975,69;24,82
973,76;24,45
971,83;24,45
969,90;24,79
967,97;25,42
966,04;26,32
964,11;27,40
962,18;28,45
960,25;29,26
958,32;29,76
956,39;30,07
954,46;30,44
952,53;31,11
950,60;32,11
948,67;33,29
946,74;34,50
944,81;35,68
942,88;36,80
940,95;37,82
939,02;38,71
937,09;39,52
935,16;40,34
933,23;41,18
931,30;42,02
929,37;42,79
927,44;43,44
925,51;43,91
923,58;44,19
921,65;44,33
919,72;44,52
917,79;45,10
915,86;46,16
913,93;47,27
912,00;48,08
910,07;48,63
908,14;49,18
906,21;49,75
904,28;50,16
902,35;50,25
900,42;50,05
898,49;49,67
896,56;49,18
894,63;48,68
892,70;48,20
890,77;47,87
888,84;47,95
886,91;48,58
884,98;49,47
883,05;50,17
881,12;50,48
879,19;50,48
877,26;50,33
875,33;50,11
873,40;49,86
871,47;49,69
869,54;49,60
867,61;49,59
865,68;49,64
863,75;49,72
861,82;49,80
859,89;49,86
857,96;49,86
856,03;49,88
854,10;50,05
852,17;50,43
850,24;51,00
848,31;51,70
846,38;52,47
844,45;53,23
842,52;54,05
840,59;54,91
838,66;55,59
836,73;56,02
834,80;56,24
832,87;56,23
830,94;56,01
829,01;55,59
827,08;55,05
825,15;54,44
823,22;53,81
821,29;53,09
819,36;52,24
817,43;51,33
815,50;50,70
813,57;50,70
811,64;51,38
809,71;52,31
807,78;53,05
805,85;53,55
803,92;54,21
801,99;55,24
800,06;56,39
798,13;57,31
796,20;57,93
794,27;58,31
792,34;58,42
790,41;58,25
788,48;57,78
786,55;57,01
784,62;55,93
782,69;54,68
780,76;53,41
778,83;52,16
776,90;50,83
774,97;49,55
773,04;48,49
771,11;47,85
769,18;47,62
767,25;47,69
765,32;47,92
763,39;48,23
761,46;48,33
759,53;48,02
757,60;47,24
755,67;46,12
753,74;44,83
751,81;43,58
749,88;42,53
747,95;41,64
746,02;40,61
744,09;39,17
742,16;37,31
740,23;35,39
738,30;33,85
736,37;32,68
734,44;31,53
732,51;30,12
730,58;28,24
728,65;25,81
726,72;22,93
724,79;19,91
722,86;17,77
720,93;18,07
719,00;21,83
717,07;27,92
715,14;34,43
713,21;40,27
711,28;45,36
709,35;49,64
707,42;53,10
705,49;55,78
703,56;57,91
701,63;59,48
699,70;60,62
697,77;62,03
695,84;64,03
693,91;65,78
691,98;66,77
690,05;67,21
688,12;67,44
686,19;67,57
684,26;67,64
682,33;67,58
680,40;67,34
678,47;66,89
676,54;66,21
674,61;65,33
672,68;64,32
670,75;63,45
668,82;62,90
666,89;62,79
664,96;62,76
663,03;62,79
661,10;62,79
659,17;62,56
657,24;62,09
655,31;61,73
653,38;61,93
651,45;62,88
649,52;64,37
647,59;65,93
645,66;67,13
643,73;67,74
641,80;67,79
639,87;67,52
637,94;67,33
636,01;67,59
634,08;68,06
632,15;68,31
630,22;68,26
628,29;68,21
626,36;68,47
624,43;69,00
622,50;69,58
620,57;70,06
618,64;70,42
616,71;70,66
614,78;70,77
612,85;70,83
610,92;70,92
608,99;70,99
607,06;71,05
605,13;71,13
603,20;71,23
601,27;71,31
599,34;71,39
597,41;71,37
595,48;71,27
593,55;71,10
591,62;70,83
589,69;70,45
587,76;70,12
585,83;69,96
583,90;69,99
581,97;70,15
580,04;70,27
578,11;70,32
576,18;70,31
574,25;70,18
572,32;69,99
570,39;69,75
568,46;69,42
566,53;69,05
564,60;68,72
562,67;68,46
560,74;68,28
558,81;68,20
556,88;68,15
554,95;68,10
553,02;68,01
551,09;67,96
549,16;67,95
547,23;68,03
545,30;68,19
543,37;68,40
541,44;68,56
539,51;68,71
537,58;68,94
535,65;69,27
533,72;69,63
531,79;70,01
529,86;70,41
527,93;70,86
526,00;71,31
524,07;71,65
522,14;72,01
520,21;72,45
518,28;72,79
516,35;72,97
514,42;73,08
512,49;73,21
510,56;73,33
508,63;73,44
506,70;73,50
504,77;73,47
502,84;73,51
500,91;73,47
