Created as New Dataset;Amostra 407 por Laboratório data segunda-feira, setembro 23 2024
cm-1;%T
4000,00;2,63
3998,07;2,63
3996,14;2,63
3994,21;2,63
3992,28;2,63
3990,35;2,63
3988,42;2,63
3986,49;2,63
3984,56;2,63
3982,63;2,63
3980,70;2,64
3978,77;2,63
3976,84;2,63
3974,91;2,63
3972,98;2,63
3971,05;2,63
3969,12;2,63
3967,19;2,63
3965,26;2,62
3963,33;2,62
3961,40;2,61
3959,47;2,61
3957,54;2,61
3955,61;2,61
3953,68;2,60
3951,75;2,60
3949,82;2,60
3947,89;2,59
3945,96;2,59
3944,03;2,58
3942,10;2,58
3940,17;2,57
3938,24;2,57
3936,31;2,56
3934,38;2,56
3932,45;2,56
3930,52;2,55
3928,59;2,55
3926,66;2,54
3924,73;2,54
3922,80;2,53
3920,87;2,52
3918,94;2,52
3917,01;2,51
3915,08;2,50
3913,15;2,50
3911,22;2,49
3909,29;2,49
3907,36;2,48
3905,43;2,47
3903,50;2,46
3901,57;2,46
3899,64;2,45
3897,71;2,45
3895,78;2,44
3893,85;2,44
3891,92;2,43
3889,99;2,42
3888,06;2,41
3886,13;2,40
3884,20;2,39
3882,27;2,39
3880,34;2,38
3878,41;2,38
3876,48;2,37
3874,55;2,36
3872,62;2,35
3870,69;2,34
3868,76;2,33
3866,83;2,33
3864,90;2,32
3862,97;2,31
3861,04;2,30
3859,11;2,29
3857,18;2,28
3855,25;2,26
3853,32;2,26
3851,39;2,25
3849,46;2,24
3847,53;2,23
3845,60;2,22
3843,67;2,21
3841,74;2,20
3839,81;2,19
3837,88;2,18
3835,95;2,17
3834,02;2,16
3832,09;2,15
3830,16;2,14
3828,23;2,13
3826,30;2,12
3824,37;2,10
3822,44;2,09
3820,51;2,08
3818,58;2,07
3816,65;2,06
3814,72;2,04
3812,79;2,03
3810,86;2,02
3808,93;2,01
3807,00;2,00
3805,07;1,98
3803,14;1,97
3801,21;1,96
3799,28;1,95
3797,35;1,93
3795,42;1,92
3793,49;1,90
3791,56;1,89
3789,63;1,87
3787,70;1,86
3785,77;1,85
3783,84;1,83
3781,91;1,82
3779,98;1,80
3778,05;1,79
3776,12;1,77
3774,19;1,76
3772,26;1,75
3770,33;1,73
3768,40;1,72
3766,47;1,70
3764,54;1,68
3762,61;1,67
3760,68;1,65
3758,75;1,64
3756,82;1,62
3754,89;1,60
3752,96;1,59
3751,03;1,57
3749,10;1,55
3747,17;1,53
3745,24;1,51
3743,31;1,49
3741,38;1,47
3739,45;1,44
3737,52;1,42
3735,59;1,40
3733,66;1,38
3731,73;1,36
3729,80;1,34
3727,87;1,32
3725,94;1,30
3724,01;1,27
3722,08;1,25
3720,15;1,23
3718,22;1,21
3716,29;1,19
3714,36;1,16
3712,43;1,14
3710,50;1,11
3708,57;1,08
3706,64;1,05
3704,71;1,02
3702,78;0,99
3700,85;0,96
3698,92;0,93
3696,99;0,90
3695,06;0,87
3693,13;0,84
3691,20;0,81
3689,27;0,78
3687,34;0,75
3685,41;0,73
3683,48;0,70
3681,55;0,68
3679,62;0,65
3677,69;0,63
3675,76;0,60
3673,83;0,58
3671,90;0,55
3669,97;0,53
3668,04;0,50
3666,11;0,48
3664,18;0,45
3662,25;0,43
3660,32;0,41
3658,39;0,40
3656,46;0,38
3654,53;0,37
3652,60;0,35
3650,67;0,34
3648,74;0,33
3646,81;0,32
3644,88;0,30
3642,95;0,29
3641,02;0,28
3639,09;0,27
3637,16;0,26
3635,23;0,25
3633,30;0,25
3631,37;0,24
3629,44;0,24
3627,51;0,23
3625,58;0,21
3623,65;0,20
3621,72;0,20
3619,79;0,20
3617,86;0,19
3615,93;0,19
3614,00;0,18
3612,07;0,18
3610,14;0,17
3608,21;0,17
3606,28;0,16
3604,35;0,15
3602,42;0,15
3600,49;0,15
3598,56;0,14
3596,63;0,14
3594,70;0,14
3592,77;0,14
3590,84;0,13
3588,91;0,13
3586,98;0,12
3585,05;0,11
3583,12;0,11
3581,19;0,11
3579,26;0,11
3577,33;0,11
3575,40;0,11
3573,47;0,10
3571,54;0,10
3569,61;0,10
3567,68;0,10
3565,75;0,10
3563,82;0,09
3561,89;0,09
3559,96;0,08
3558,03;0,08
3556,10;0,08
3554,17;0,08
3552,24;0,08
3550,31;0,07
3548,38;0,07
3546,45;0,06
3544,52;0,06
3542,59;0,06
3540,66;0,06
3538,73;0,06
3536,80;0,05
3534,87;0,05
3532,94;0,05
3531,01;0,05
3529,08;0,05
3527,15;0,04
3525,22;0,04
3523,29;0,03
3521,36;0,03
3519,43;0,03
3517,50;0,03
3515,57;0,03
3513,64;0,03
3511,71;0,03
3509,78;0,02
3507,85;0,02
3505,92;0,02
3503,99;0,02
3502,06;0,02
3500,13;0,02
3498,20;0,02
3496,27;0,02
3494,34;0,02
3492,41;0,02
3490,48;0,02
3488,55;0,02
3486,62;0,02
3484,69;0,02
3482,76;0,02
3480,83;0,02
3478,90;0,02
3476,97;0,02
3475,04;0,02
3473,11;0,02
3471,18;0,02
3469,25;0,02
3467,32;0,02
3465,39;0,02
3463,46;0,02
3461,53;0,02
3459,60;0,02
3457,67;0,02
3455,74;0,02
3453,81;0,02
3451,88;0,02
3449,95;0,02
3448,02;0,02
3446,09;0,02
3444,16;0,02
3442,23;0,02
3440,30;0,02
3438,37;0,02
3436,44;0,02
3434,51;0,02
3432,58;0,02
3430,65;0,02
3428,72;0,02
3426,79;0,02
3424,86;0,02
3422,93;0,02
3421,00;0,02
3419,07;0,02
3417,14;0,02
3415,21;0,02
3413,28;0,02
3411,35;0,02
3409,42;0,02
3407,49;0,02
3405,56;0,02
3403,63;0,02
3401,70;0,02
3399,77;0,02
3397,84;0,02
3395,91;0,02
3393,98;0,02
3392,05;0,02
3390,12;0,02
3388,19;0,02
3386,26;0,02
3384,33;0,02
3382,40;0,02
3380,47;0,02
3378,54;0,02
3376,61;0,02
3374,68;0,02
3372,75;0,02
3370,82;0,02
3368,89;0,02
3366,96;0,02
3365,03;0,02
3363,10;0,02
3361,17;0,03
3359,24;0,03
3357,31;0,03
3355,38;0,03
3353,45;0,03
3351,52;0,03
3349,59;0,03
3347,66;0,03
3345,73;0,03
3343,80;0,03
3341,87;0,03
3339,94;0,03
3338,01;0,03
3336,08;0,03
3334,15;0,03
3332,22;0,03
3330,29;0,03
3328,36;0,03
3326,43;0,03
3324,50;0,03
3322,57;0,04
3320,64;0,04
3318,71;0,04
3316,78;0,04
3314,85;0,04
3312,92;0,04
3310,99;0,04
3309,06;0,04
3307,13;0,04
3305,20;0,04
3303,27;0,04
3301,34;0,04
3299,41;0,05
3297,48;0,05
3295,55;0,05
3293,62;0,05
3291,69;0,05
3289,76;0,05
3287,83;0,05
3285,90;0,05
3283,97;0,05
3282,04;0,05
3280,11;0,05
3278,18;0,06
3276,25;0,06
3274,32;0,06
3272,39;0,06
3270,46;0,06
3268,53;0,06
3266,60;0,06
3264,67;0,07
3262,74;0,07
3260,81;0,07
3258,88;0,07
3256,95;0,07
3255,02;0,07
3253,09;0,07
3251,16;0,07
3249,23;0,08
3247,30;0,08
3245,37;0,08
3243,44;0,08
3241,51;0,08
3239,58;0,09
3237,65;0,09
3235,72;0,09
3233,79;0,09
3231,86;0,10
3229,93;0,10
3228,00;0,10
3226,07;0,11
3224,14;0,11
3222,21;0,11
3220,28;0,12
3218,35;0,12
3216,42;0,12
3214,49;0,13
3212,56;0,13
3210,63;0,14
3208,70;0,14
3206,77;0,14
3204,84;0,15
3202,91;0,16
3200,98;0,16
3199,05;0,17
3197,12;0,18
3195,19;0,18
3193,26;0,19
3191,33;0,20
3189,40;0,21
3187,47;0,21
3185,54;0,22
3183,61;0,23
3181,68;0,24
3179,75;0,25
3177,82;0,26
3175,89;0,28
3173,96;0,29
3172,03;0,30
3170,10;0,31
3168,17;0,33
3166,24;0,34
3164,31;0,36
3162,38;0,38
3160,45;0,39
3158,52;0,41
3156,59;0,43
3154,66;0,45
3152,73;0,47
3150,80;0,49
3148,87;0,52
3146,94;0,54
3145,01;0,57
3143,08;0,59
3141,15;0,62
3139,22;0,64
3137,29;0,67
3135,36;0,70
3133,43;0,73
3131,50;0,76
3129,57;0,80
3127,64;0,83
3125,71;0,87
3123,78;0,90
3121,85;0,93
3119,92;0,97
3117,99;1,01
3116,06;1,05
3114,13;1,09
3112,20;1,13
3110,27;1,17
3108,34;1,22
3106,41;1,26
3104,48;1,31
3102,55;1,35
3100,62;1,40
3098,69;1,45
3096,76;1,49
3094,83;1,54
3092,90;1,59
3090,97;1,64
3089,04;1,68
3087,11;1,73
3085,18;1,77
3083,25;1,81
3081,32;1,86
3079,39;1,90
3077,46;1,94
3075,53;1,98
3073,60;2,01
3071,67;2,05
3069,74;2,08
3067,81;2,11
3065,88;2,15
3063,95;2,19
3062,02;2,23
3060,09;2,28
3058,16;2,32
3056,23;2,36
3054,30;2,40
3052,37;2,43
3050,44;2,46
3048,51;2,48
3046,58;2,50
3044,65;2,51
3042,72;2,52
3040,79;2,52
3038,86;2,51
3036,93;2,49
3035,00;2,46
3033,07;2,40
3031,14;2,34
3029,21;2,24
3027,28;2,12
3025,35;1,97
3023,42;1,79
3021,49;1,58
3019,56;1,35
3017,63;1,11
3015,70;0,90
3013,77;0,72
3011,84;0,60
3009,91;0,53
3007,98;0,50
3006,05;0,51
3004,12;0,53
3002,19;0,56
3000,26;0,58
2998,33;0,58
2996,40;0,55
2994,47;0,50
2992,54;0,44
2990,61;0,37
2988,68;0,29
2986,75;0,22
2984,82;0,16
2982,89;0,11
2980,96;0,07
2979,03;0,04
2977,10;0,02
2975,17;0,02
2973,24;0,01
2971,31;0,01
2969,38;0,01
2967,45;0,01
2965,52;0,01
2963,59;0,01
2961,66;0,01
2959,73;0,01
2957,80;0,01
2955,87;0,01
2953,94;0,00
2952,01;0,00
2950,08;0,00
2948,15;0,00
2946,22;0,00
2944,29;0,00
2942,36;0,00
2940,43;0,00
2938,50;0,00
2936,57;0,00
2934,64;0,00
2932,71;0,00
2930,78;0,00
2928,85;0,00
2926,92;0,00
2924,99;0,00
2923,06;0,00
2921,13;0,00
2919,20;0,00
2917,27;0,00
2915,34;0,00
2913,41;0,00
2911,48;0,00
2909,55;0,00
2907,62;0,00
2905,69;0,00
2903,76;0,00
2901,83;0,00
2899,90;0,00
2897,97;0,00
2896,04;0,00
2894,11;0,00
2892,18;0,00
2890,25;0,00
2888,32;0,00
2886,39;0,00
2884,46;0,00
2882,53;0,00
2880,60;0,00
2878,67;0,00
2876,74;0,00
2874,81;0,00
2872,88;0,00
2870,95;0,00
2869,02;0,00
2867,09;0,00
2865,16;0,00
2863,23;0,01
2861,30;0,01
2859,37;0,01
2857,44;0,01
2855,51;0,01
2853,58;0,01
2851,65;0,01
2849,72;0,01
2847,79;0,01
2845,86;0,01
2843,93;0,01
2842,00;0,01
2840,07;0,01
2838,14;0,01
2836,21;0,03
2834,28;0,07
2832,35;0,14
2830,42;0,25
2828,49;0,39
2826,56;0,57
2824,63;0,77
2822,70;1,00
2820,77;1,26
2818,84;1,53
2816,91;1,82
2814,98;2,13
2813,05;2,45
2811,12;2,78
2809,19;3,12
2807,26;3,48
2805,33;3,84
2803,40;4,20
2801,47;4,56
2799,54;4,93
2797,61;5,29
2795,68;5,64
2793,75;6,00
2791,82;6,36
2789,89;6,73
2787,96;7,10
2786,03;7,47
2784,10;7,85
2782,17;8,23
2780,24;8,61
2778,31;8,97
2776,38;9,31
2774,45;9,63
2772,52;9,92
2770,59;10,18
2768,66;10,41
2766,73;10,62
2764,80;10,80
2762,87;10,95
2760,94;11,08
2759,01;11,20
2757,08;11,30
2755,15;11,40
2753,22;11,48
2751,29;11,54
2749,36;11,58
2747,43;11,60
2745,50;11,59
2743,57;11,56
2741,64;11,49
2739,71;11,39
2737,78;11,25
2735,85;11,08
2733,92;10,89
2731,99;10,72
2730,06;10,62
2728,13;10,62
2726,20;10,69
2724,27;10,82
2722,34;10,95
2720,41;11,10
2718,48;11,26
2716,55;11,45
2714,62;11,67
2712,69;11,90
2710,76;12,12
2708,83;12,31
2706,90;12,46
2704,97;12,58
2703,04;12,66
2701,11;12,70
2699,18;12,71
2697,25;12,70
2695,32;12,65
2693,39;12,59
2691,46;12,52
2689,53;12,44
2687,60;12,38
2685,67;12,33
2683,74;12,30
2681,81;12,29
2679,88;12,29
2677,95;12,29
2676,02;12,30
2674,09;12,32
2672,16;12,34
2670,23;12,39
2668,30;12,47
2666,37;12,57
2664,44;12,71
2662,51;12,86
2660,58;13,02
2658,65;13,18
2656,72;13,33
2654,79;13,47
2652,86;13,61
2650,93;13,73
2649,00;13,84
2647,07;13,94
2645,14;14,03
2643,21;14,12
2641,28;14,20
2639,35;14,28
2637,42;14,35
2635,49;14,42
2633,56;14,49
2631,63;14,56
2629,70;14,64
2627,77;14,72
2625,84;14,81
2623,91;14,89
2621,98;14,97
2620,05;15,04
2618,12;15,12
2616,19;15,20
2614,26;15,27
2612,33;15,35
2610,40;15,43
2608,47;15,51
2606,54;15,59
2604,61;15,68
2602,68;15,77
2600,75;15,86
2598,82;15,96
2596,89;16,07
2594,96;16,17
2593,03;16,29
2591,10;16,40
2589,17;16,52
2587,24;16,64
2585,31;16,77
2583,38;16,90
2581,45;17,03
2579,52;17,16
2577,59;17,29
2575,66;17,43
2573,73;17,56
2571,80;17,70
2569,87;17,83
2567,94;17,95
2566,01;18,07
2564,08;18,19
2562,15;18,29
2560,22;18,40
2558,29;18,49
2556,36;18,58
2554,43;18,66
2552,50;18,74
2550,57;18,81
2548,64;18,88
2546,71;18,94
2544,78;19,00
2542,85;19,06
2540,92;19,11
2538,99;19,16
2537,06;19,21
2535,13;19,26
2533,20;19,31
2531,27;19,37
2529,34;19,43
2527,41;19,50
2525,48;19,58
2523,55;19,66
2521,62;19,74
2519,69;19,82
2517,76;19,90
2515,83;19,98
2513,90;20,06
2511,97;20,13
2510,04;20,20
2508,11;20,27
2506,18;20,33
2504,25;20,39
2502,32;20,44
2500,39;20,49
2498,46;20,54
2496,53;20,59
2494,60;20,64
2492,67;20,68
2490,74;20,71
2488,81;20,75
2486,88;20,78
2484,95;20,82
2483,02;20,85
2481,09;20,87
2479,16;20,90
2477,23;20,92
2475,30;20,95
2473,37;20,97
2471,44;20,98
2469,51;21,00
2467,58;21,01
2465,65;21,02
2463,72;21,03
2461,79;21,04
2459,86;21,04
2457,93;21,05
2456,00;21,05
2454,07;21,05
2452,14;21,05
2450,21;21,05
2448,28;21,05
2446,35;21,04
2444,42;21,03
2442,49;21,02
2440,56;21,01
2438,63;21,00
2436,70;20,98
2434,77;20,96
2432,84;20,94
2430,91;20,92
2428,98;20,89
2427,05;20,86
2425,12;20,84
2423,19;20,83
2421,26;20,81
2419,33;20,79
2417,40;20,77
2415,47;20,75
2413,54;20,73
2411,61;20,71
2409,68;20,69
2407,75;20,67
2405,82;20,66
2403,89;20,65
2401,96;20,64
2400,03;20,63
2398,10;20,62
2396,17;20,62
2394,24;20,61
2392,31;20,61
2390,38;20,59
2388,45;20,55
2386,52;20,48
2384,59;20,36
2382,66;20,18
2380,73;19,96
2378,80;19,76
2376,87;19,63
2374,94;19,57
2373,01;19,57
2371,08;19,56
2369,15;19,54
2367,22;19,47
2365,29;19,39
2363,36;19,30
2361,43;19,20
2359,50;19,10
2357,57;19,01
2355,64;18,91
2353,71;18,80
2351,78;18,73
2349,85;18,75
2347,92;18,78
2345,99;18,68
2344,06;18,62
2342,13;18,57
2340,20;18,35
2338,27;17,91
2336,34;17,53
2334,41;17,60
2332,48;18,02
2330,55;18,43
2328,62;18,68
2326,69;18,77
2324,76;18,74
2322,83;18,73
2320,90;18,82
2318,97;18,95
2317,04;19,04
2315,11;19,07
2313,18;19,10
2311,25;19,17
2309,32;19,27
2307,39;19,38
2305,46;19,48
2303,53;19,56
2301,60;19,63
2299,67;19,69
2297,74;19,75
2295,81;19,80
2293,88;19,85
2291,95;19,89
2290,02;19,93
2288,09;19,97
2286,16;20,00
2284,23;20,02
2282,30;20,03
2280,37;20,03
2278,44;20,04
2276,51;20,04
2274,58;20,05
2272,65;20,05
2270,72;20,05
2268,79;20,06
2266,86;20,07
2264,93;20,08
2263,00;20,09
2261,07;20,10
2259,14;20,11
2257,21;20,11
2255,28;20,12
2253,35;20,12
2251,42;20,12
2249,49;20,12
2247,56;20,12
2245,63;20,12
2243,70;20,11
2241,77;20,11
2239,84;20,10
2237,91;20,09
2235,98;20,08
2234,05;20,07
2232,12;20,06
2230,19;20,05
2228,26;20,04
2226,33;20,02
2224,40;20,01
2222,47;19,99
2220,54;19,98
2218,61;19,96
2216,68;19,94
2214,75;19,92
2212,82;19,90
2210,89;19,88
2208,96;19,87
2207,03;19,84
2205,10;19,82
2203,17;19,80
2201,24;19,79
2199,31;19,76
2197,38;19,74
2195,45;19,72
2193,52;19,69
2191,59;19,67
2189,66;19,65
2187,73;19,63
2185,80;19,61
2183,87;19,60
2181,94;19,59
2180,01;19,58
2178,08;19,58
2176,15;19,58
2174,22;19,57
2172,29;19,57
2170,36;19,57
2168,43;19,57
2166,50;19,57
2164,57;19,57
2162,64;19,57
2160,71;19,57
2158,78;19,57
2156,85;19,58
2154,92;19,59
2152,99;19,60
2151,06;19,62
2149,13;19,65
2147,20;19,69
2145,27;19,74
2143,34;19,79
2141,41;19,84
2139,48;19,88
2137,55;19,92
2135,62;19,95
2133,69;19,99
2131,76;20,02
2129,83;20,05
2127,90;20,08
2125,97;20,11
2124,04;20,13
2122,11;20,16
2120,18;20,19
2118,25;20,22
2116,32;20,24
2114,39;20,27
2112,46;20,30
2110,53;20,33
2108,60;20,35
2106,67;20,38
2104,74;20,41
2102,81;20,45
2100,88;20,48
2098,95;20,51
2097,02;20,55
2095,09;20,58
2093,16;20,62
2091,23;20,65
2089,30;20,69
2087,37;20,71
2085,44;20,75
2083,51;20,78
2081,58;20,82
2079,65;20,85
2077,72;20,89
2075,79;20,92
2073,86;20,96
2071,93;20,99
2070,00;21,05
2068,07;21,09
2066,14;21,11
2064,21;21,14
2062,28;21,17
2060,35;21,20
2058,42;21,23
2056,49;21,26
2054,56;21,30
2052,63;21,34
2050,70;21,38
2048,77;21,41
2046,84;21,45
2044,91;21,50
2042,98;21,52
2041,05;21,55
2039,12;21,58
2037,19;21,62
2035,26;21,65
2033,33;21,70
2031,40;21,75
2029,47;21,82
2027,54;21,89
2025,61;21,97
2023,68;22,07
2021,75;22,20
2019,82;22,33
2017,89;22,44
2015,96;22,56
2014,03;22,69
2012,10;22,81
2010,17;22,93
2008,24;23,04
2006,31;23,13
2004,38;23,23
2002,45;23,31
2000,52;23,40
1998,59;23,49
1996,66;23,63
1994,73;23,72
1992,80;23,77
1990,87;23,84
1988,94;23,87
1987,01;23,91
1985,08;23,97
1983,15;24,03
1981,22;24,09
1979,29;24,14
1977,36;24,20
1975,43;24,25
1973,50;24,31
1971,57;24,40
1969,64;24,45
1967,71;24,48
1965,78;24,52
1963,85;24,54
1961,92;24,58
1959,99;24,61
1958,06;24,65
1956,13;24,67
1954,20;24,70
1952,27;24,72
1950,34;24,73
1948,41;24,78
1946,48;24,89
1944,55;24,91
1942,62;24,90
1940,69;24,88
1938,76;24,86
1936,83;24,88
1934,90;24,91
1932,97;24,94
1931,04;24,97
1929,11;25,01
1927,18;25,10
1925,25;25,14
1923,32;25,22
1921,39;25,32
1919,46;25,25
1917,53;25,25
1915,60;25,21
1913,67;25,20
1911,74;25,21
1909,81;25,24
1907,88;25,24
1905,95;25,25
1904,02;25,24
1902,09;25,24
1900,16;25,25
1898,23;25,27
1896,30;25,26
1894,37;25,33
1892,44;25,34
1890,51;25,29
1888,58;25,28
1886,65;25,22
1884,72;25,19
1882,79;25,17
1880,86;25,15
1878,93;25,13
1877,00;25,12
1875,07;25,16
1873,14;25,27
1871,21;25,23
1869,28;25,27
1867,35;25,30
1865,42;25,22
1863,49;25,14
1861,56;25,09
1859,63;25,04
1857,70;25,00
1855,77;24,95
1853,84;24,93
1851,91;24,93
1849,98;24,94
1848,05;25,05
1846,12;24,99
1844,19;24,89
1842,26;24,75
1840,33;24,54
1838,40;24,44
1836,47;24,35
1834,54;24,28
1832,61;24,14
1830,68;24,13
1828,75;24,22
1826,82;23,99
1824,89;23,75
1822,96;23,55
1821,03;23,39
1819,10;23,18
1817,17;22,98
1815,24;22,81
1813,31;22,62
1811,38;22,46
1809,45;22,25
1807,52;22,02
1805,59;21,90
1803,66;21,59
1801,73;21,23
1799,80;20,91
1797,87;20,58
1795,94;20,33
1794,01;20,04
1792,08;19,63
1790,15;19,17
1788,22;18,72
1786,29;18,17
1784,36;17,61
1782,43;17,03
1780,50;16,41
1778,57;15,67
1776,64;14,91
1774,71;14,12
1772,78;13,36
1770,85;12,27
1768,92;10,76
1766,99;9,07
1765,06;7,28
1763,13;5,33
1761,20;3,37
1759,27;1,83
1757,34;0,86
1755,41;0,32
1753,48;0,11
1751,55;0,03
1749,62;0,02
1747,69;0,01
1745,76;0,01
1743,83;0,02
1741,90;0,06
1739,97;0,16
1738,04;0,35
1736,11;0,61
1734,18;1,05
1732,25;1,55
1730,32;1,95
1728,39;2,33
1726,46;2,64
1724,53;2,86
1722,60;3,01
1720,67;3,03
1718,74;2,94
1716,81;2,72
1714,88;2,42
1712,95;2,19
1711,02;2,12
1709,09;2,21
1707,16;2,43
1705,23;2,78
1703,30;3,09
1701,37;3,29
1699,44;3,59
1697,51;3,75
1695,58;3,85
1693,65;3,91
1691,72;3,91
1689,79;3,89
1687,86;3,88
1685,93;3,85
1684,00;3,83
1682,07;3,71
1680,14;3,57
1678,21;3,46
1676,28;3,32
1674,35;3,20
1672,42;3,08
1670,49;2,98
1668,56;2,86
1666,63;2,73
1664,70;2,61
1662,77;2,50
1660,84;2,38
1658,91;2,28
1656,98;2,21
1655,05;2,14
1653,12;2,14
1651,19;2,11
1649,26;2,09
1647,33;2,10
1645,40;2,13
1643,47;2,14
1641,54;2,16
1639,61;2,20
1637,68;2,26
1635,75;2,33
1633,82;2,37
1631,89;2,39
1629,96;2,48
1628,03;2,66
1626,10;2,89
1624,17;3,14
1622,24;3,40
1620,31;3,62
1618,38;3,86
1616,45;4,21
1614,52;4,50
1612,59;4,72
1610,66;4,98
1608,73;5,25
1606,80;5,54
1604,87;5,86
1602,94;6,20
1601,01;6,54
1599,08;6,89
1597,15;7,25
1595,22;7,64
1593,29;8,01
1591,36;8,37
1589,43;8,73
1587,50;9,08
1585,57;9,42
1583,64;9,74
1581,71;10,00
1579,78;10,24
1577,85;10,53
1575,92;11,00
1573,99;11,31
1572,06;11,48
1570,13;11,76
1568,20;12,01
1566,27;12,14
1564,34;12,39
1562,41;12,66
1560,48;12,88
1558,55;13,50
1556,62;13,63
1554,69;13,65
1552,76;13,82
1550,83;13,92
1548,90;14,13
1546,97;14,29
1545,04;14,31
1543,11;14,31
1541,18;14,62
1539,25;14,91
1537,32;14,96
1535,39;14,97
1533,46;15,06
1531,53;15,06
1529,60;15,04
1527,67;14,92
1525,74;14,79
1523,81;14,76
1521,88;14,65
1519,95;14,39
1518,02;14,05
1516,09;13,70
1514,16;13,49
1512,23;13,43
1510,30;13,41
1508,37;13,36
1506,44;13,32
1504,51;13,05
1502,58;12,77
1500,65;12,52
1498,72;12,23
1496,79;11,76
1494,86;11,19
1492,93;10,62
1491,00;9,88
1489,07;9,00
1487,14;8,11
1485,21;7,26
1483,28;6,39
1481,35;5,43
1479,42;4,39
1477,49;3,28
1475,56;2,17
1473,63;1,19
1471,70;0,43
1469,77;0,10
1467,84;0,02
1465,91;0,01
1463,98;0,00
1462,05;0,00
1460,12;0,00
1458,19;0,00
1456,26;0,00
1454,33;0,01
1452,40;0,02
1450,47;0,05
1448,54;0,08
1446,61;0,13
1444,68;0,19
1442,75;0,29
1440,82;0,40
1438,89;0,56
1436,96;0,77
1435,03;1,10
1433,10;1,52
1431,17;2,09
1429,24;2,76
1427,31;3,38
1425,38;3,84
1423,45;4,17
1421,52;4,34
1419,59;4,38
1417,66;4,42
1415,73;4,59
1413,80;4,93
1411,87;5,33
1409,94;5,67
1408,01;5,86
1406,08;5,84
1404,15;5,68
1402,22;5,53
1400,29;5,40
1398,36;5,28
1396,43;5,11
1394,50;4,80
1392,57;4,38
1390,64;3,90
1388,71;3,23
1386,78;2,36
1384,85;1,54
1382,92;0,95
1380,99;0,52
1379,06;0,25
1377,13;0,18
1375,20;0,29
1373,27;0,55
1371,34;0,81
1369,41;0,92
1367,48;0,89
1365,55;0,98
1363,62;1,34
1361,69;1,86
1359,76;2,29
1357,83;2,56
1355,90;2,70
1353,97;2,78
1352,04;2,86
1350,11;3,01
1348,18;3,21
1346,25;3,42
1344,32;3,60
1342,39;3,78
1340,46;3,97
1338,53;4,22
1336,60;4,52
1334,67;4,81
1332,74;5,05
1330,81;5,23
1328,88;5,31
1326,95;5,31
1325,02;5,25
1323,09;5,17
1321,16;5,09
1319,23;5,03
1317,30;4,98
1315,37;4,93
1313,44;4,87
1311,51;4,81
1309,58;4,74
1307,65;4,67
1305,72;4,58
1303,79;4,50
1301,86;4,46
1299,93;4,48
1298,00;4,53
1296,07;4,60
1294,14;4,66
1292,21;4,71
1290,28;4,72
1288,35;4,66
1286,42;4,52
1284,49;4,35
1282,56;4,17
1280,63;4,03
1278,70;3,94
1276,77;3,89
1274,84;3,90
1272,91;3,92
1270,98;3,95
1269,05;3,96
1267,12;3,95
1265,19;3,93
1263,26;3,92
1261,33;3,90
1259,40;3,88
1257,47;3,84
1255,54;3,78
1253,61;3,70
1251,68;3,57
1249,75;3,40
1247,82;3,21
1245,89;3,03
1243,96;2,88
1242,03;2,78
1240,10;2,71
1238,17;2,66
1236,24;2,63
1234,31;2,61
1232,38;2,61
1230,45;2,67
1228,52;2,76
1226,59;2,87
1224,66;3,00
1222,73;3,12
1220,80;3,23
1218,87;3,32
1216,94;3,38
1215,01;3,40
1213,08;3,40
1211,15;3,38
1209,22;3,34
1207,29;3,30
1205,36;3,22
1203,43;3,13
1201,50;3,02
1199,57;2,89
1197,64;2,75
1195,71;2,59
1193,78;2,43
1191,85;2,28
1189,92;2,13
1187,99;1,98
1186,06;1,83
1184,13;1,66
1182,20;1,49
1180,27;1,33
1178,34;1,18
1176,41;1,04
1174,48;0,92
1172,55;0,81
1170,62;0,72
1168,69;0,66
1166,76;0,61
1164,83;0,59
1162,90;0,58
1160,97;0,58
1159,04;0,59
1157,11;0,63
1155,18;0,68
1153,25;0,75
1151,32;0,82
1149,39;0,90
1147,46;0,97
1145,53;1,04
1143,60;1,11
1141,67;1,20
1139,74;1,35
1137,81;1,56
1135,88;1,84
1133,95;2,18
1132,02;2,52
1130,09;2,79
1128,16;2,94
1126,23;2,94
1124,30;2,84
1122,37;2,71
1120,44;2,63
1118,51;2,63
1116,58;2,73
1114,65;2,88
1112,72;3,02
1110,79;3,10
1108,86;3,10
1106,93;3,01
1105,00;2,88
1103,07;2,75
1101,14;2,66
1099,21;2,61
1097,28;2,61
1095,35;2,65
1093,42;2,73
1091,49;2,84
1089,56;2,97
1087,63;3,13
1085,70;3,33
1083,77;3,58
1081,84;3,88
1079,91;4,22
1077,98;4,57
1076,05;4,91
1074,12;5,22
1072,19;5,48
1070,26;5,69
1068,33;5,85
1066,40;5,98
1064,47;6,10
1062,54;6,25
1060,61;6,43
1058,68;6,62
1056,75;6,80
1054,82;6,98
1052,89;7,14
1050,96;7,30
1049,03;7,43
1047,10;7,55
1045,17;7,65
1043,24;7,72
1041,31;7,76
1039,38;7,78
1037,45;7,81
1035,52;7,85
1033,59;7,93
1031,66;8,05
1029,73;8,20
1027,80;8,37
1025,87;8,54
1023,94;8,70
1022,01;8,87
1020,08;9,05
1018,15;9,24
1016,22;9,41
1014,29;9,56
1012,36;9,67
1010,43;9,76
1008,50;9,86
1006,57;9,96
1004,64;10,03
1002,71;10,07
1000,78;10,07
998,85;10,07
996,92;10,07
994,99;10,07
993,06;10,07
991,13;10,06
989,20;10,03
987,27;9,99
985,34;9,97
983,41;9,97
981,48;9,97
979,55;9,94
977,62;9,86
975,69;9,74
973,76;9,57
971,83;9,41
969,90;9,26
967,97;9,15
966,04;9,09
964,11;9,09
962,18;9,15
960,25;9,21
958,32;9,26
956,39;9,29
954,46;9,30
952,53;9,32
950,60;9,34
948,67;9,38
946,74;9,41
944,81;9,46
942,88;9,50
940,95;9,54
939,02;9,56
937,09;9,57
935,16;9,57
933,23;9,57
931,30;9,56
929,37;9,53
927,44;9,47
925,51;9,37
923,58;9,23
921,65;9,05
919,72;8,87
917,79;8,74
915,86;8,70
913,93;8,70
912,00;8,71
910,07;8,71
908,14;8,71
906,21;8,71
904,28;8,68
902,35;8,61
900,42;8,49
898,49;8,32
896,56;8,11
894,63;7,88
892,70;7,66
890,77;7,46
888,84;7,32
886,91;7,26
884,98;7,23
883,05;7,20
881,12;7,14
879,19;7,08
877,26;7,00
875,33;6,89
873,40;6,78
871,47;6,66
869,54;6,55
867,61;6,43
865,68;6,33
863,75;6,23
861,82;6,14
859,89;6,04
857,96;5,93
856,03;5,82
854,10;5,71
852,17;5,60
850,24;5,48
848,31;5,36
846,38;5,25
844,45;5,17
842,52;5,11
840,59;5,07
838,66;5,02
836,73;4,96
834,80;4,88
832,87;4,81
830,94;4,75
829,01;4,69
827,08;4,63
825,15;4,56
823,22;4,48
821,29;4,39
819,36;4,31
817,43;4,23
815,50;4,17
813,57;4,12
811,64;4,07
809,71;4,01
807,78;3,95
805,85;3,89
803,92;3,85
801,99;3,83
800,06;3,80
798,13;3,75
796,20;3,67
794,27;3,59
792,34;3,50
790,41;3,40
788,48;3,28
786,55;3,16
784,62;3,01
782,69;2,88
780,76;2,76
778,83;2,66
776,90;2,56
774,97;2,45
773,04;2,35
771,11;2,27
769,18;2,19
767,25;2,14
765,32;2,09
763,39;2,05
761,46;2,01
759,53;1,95
757,60;1,89
755,67;1,84
753,74;1,77
751,81;1,69
749,88;1,61
747,95;1,53
746,02;1,43
744,09;1,33
742,16;1,22
740,23;1,12
738,30;1,02
736,37;0,93
734,44;0,84
732,51;0,75
730,58;0,65
728,65;0,56
726,72;0,47
724,79;0,39
722,86;0,35
720,93;0,36
719,00;0,45
717,07;0,57
715,14;0,69
713,21;0,79
711,28;0,89
709,35;0,98
707,42;1,06
705,49;1,13
703,56;1,17
701,63;1,21
699,70;1,24
697,77;1,27
695,84;1,32
693,91;1,36
691,98;1,40
690,05;1,43
688,12;1,46
686,19;1,50
684,26;1,53
682,33;1,57
680,40;1,60
678,47;1,64
676,54;1,67
674,61;1,71
672,68;1,73
670,75;1,74
668,82;1,75
666,89;1,82
664,96;1,85
663,03;1,86
661,10;1,87
659,17;1,88
657,24;1,91
655,31;1,94
653,38;1,97
651,45;2,00
649,52;2,02
647,59;2,05
645,66;2,08
643,73;2,10
641,80;2,12
639,87;2,13
637,94;2,15
636,01;2,17
634,08;2,18
632,15;2,19
630,22;2,20
628,29;2,21
626,36;2,22
624,43;2,23
622,50;2,25
620,57;2,25
618,64;2,25
616,71;2,24
614,78;2,25
612,85;2,25
610,92;2,26
608,99;2,26
607,06;2,27
605,13;2,27
603,20;2,28
601,27;2,30
599,34;2,32
597,41;2,35
595,48;2,38
593,55;2,42
591,62;2,44
589,69;2,45
587,76;2,47
585,83;2,50
583,90;2,53
581,97;2,55
580,04;2,58
578,11;2,62
576,18;2,67
574,25;2,70
572,32;2,74
570,39;2,79
568,46;2,83
566,53;2,88
564,60;2,92
562,67;2,97
560,74;3,02
558,81;3,07
556,88;3,12
554,95;3,17
553,02;3,21
551,09;3,26
549,16;3,31
547,23;3,35
545,30;3,40
543,37;3,44
541,44;3,49
539,51;3,54
537,58;3,58
535,65;3,63
533,72;3,68
531,79;3,73
529,86;3,79
527,93;3,86
526,00;3,91
524,07;3,94
522,14;4,00
520,21;4,08
518,28;4,15
516,35;4,18
514,42;4,22
512,49;4,29
510,56;4,36
508,63;4,43
506,70;4,50
504,77;4,58
502,84;4,66
500,91;4,68
