Created as New Dataset;Amostra 396 por Laboratório data segunda-feira, setembro 23 2024
cm-1;%T
4000,00;15,12
3998,07;15,14
3996,14;15,17
3994,21;15,20
3992,28;15,23
3990,35;15,26
3988,42;15,29
3986,49;15,33
3984,56;15,36
3982,63;15,40
3980,70;15,43
3978,77;15,46
3976,84;15,49
3974,91;15,52
3972,98;15,54
3971,05;15,57
3969,12;15,59
3967,19;15,61
3965,26;15,62
3963,33;15,64
3961,40;15,66
3959,47;15,67
3957,54;15,68
3955,61;15,69
3953,68;15,70
3951,75;15,71
3949,82;15,72
3947,89;15,73
3945,96;15,74
3944,03;15,74
3942,10;15,75
3940,17;15,76
3938,24;15,76
3936,31;15,77
3934,38;15,77
3932,45;15,78
3930,52;15,79
3928,59;15,80
3926,66;15,80
3924,73;15,80
3922,80;15,81
3920,87;15,81
3918,94;15,81
3917,01;15,82
3915,08;15,82
3913,15;15,82
3911,22;15,81
3909,29;15,81
3907,36;15,81
3905,43;15,81
3903,50;15,82
3901,57;15,83
3899,64;15,84
3897,71;15,83
3895,78;15,83
3893,85;15,83
3891,92;15,83
3889,99;15,83
3888,06;15,83
3886,13;15,83
3884,20;15,84
3882,27;15,84
3880,34;15,84
3878,41;15,84
3876,48;15,84
3874,55;15,84
3872,62;15,84
3870,69;15,85
3868,76;15,85
3866,83;15,85
3864,90;15,85
3862,97;15,85
3861,04;15,85
3859,11;15,84
3857,18;15,83
3855,25;15,82
3853,32;15,83
3851,39;15,82
3849,46;15,82
3847,53;15,81
3845,60;15,81
3843,67;15,80
3841,74;15,80
3839,81;15,80
3837,88;15,79
3835,95;15,78
3834,02;15,78
3832,09;15,77
3830,16;15,77
3828,23;15,76
3826,30;15,75
3824,37;15,74
3822,44;15,74
3820,51;15,74
3818,58;15,74
3816,65;15,73
3814,72;15,73
3812,79;15,72
3810,86;15,72
3808,93;15,72
3807,00;15,72
3805,07;15,72
3803,14;15,72
3801,21;15,71
3799,28;15,71
3797,35;15,70
3795,42;15,69
3793,49;15,68
3791,56;15,67
3789,63;15,66
3787,70;15,65
3785,77;15,64
3783,84;15,63
3781,91;15,63
3779,98;15,62
3778,05;15,62
3776,12;15,61
3774,19;15,60
3772,26;15,59
3770,33;15,59
3768,40;15,58
3766,47;15,56
3764,54;15,55
3762,61;15,54
3760,68;15,52
3758,75;15,51
3756,82;15,50
3754,89;15,49
3752,96;15,48
3751,03;15,47
3749,10;15,46
3747,17;15,44
3745,24;15,41
3743,31;15,39
3741,38;15,36
3739,45;15,35
3737,52;15,33
3735,59;15,30
3733,66;15,28
3731,73;15,24
3729,80;15,21
3727,87;15,18
3725,94;15,15
3724,01;15,12
3722,08;15,09
3720,15;15,05
3718,22;15,02
3716,29;14,98
3714,36;14,94
3712,43;14,90
3710,50;14,84
3708,57;14,78
3706,64;14,72
3704,71;14,65
3702,78;14,57
3700,85;14,48
3698,92;14,39
3696,99;14,29
3695,06;14,19
3693,13;14,10
3691,20;14,01
3689,27;13,93
3687,34;13,87
3685,41;13,81
3683,48;13,76
3681,55;13,70
3679,62;13,64
3677,69;13,58
3675,76;13,51
3673,83;13,44
3671,90;13,37
3669,97;13,29
3668,04;13,19
3666,11;13,10
3664,18;13,01
3662,25;12,90
3660,32;12,78
3658,39;12,66
3656,46;12,52
3654,53;12,37
3652,60;12,22
3650,67;12,06
3648,74;11,92
3646,81;11,79
3644,88;11,68
3642,95;11,59
3641,02;11,52
3639,09;11,46
3637,16;11,42
3635,23;11,39
3633,30;11,37
3631,37;11,34
3629,44;11,30
3627,51;11,26
3625,58;11,21
3623,65;11,15
3621,72;11,09
3619,79;11,02
3617,86;10,95
3615,93;10,88
3614,00;10,81
3612,07;10,74
3610,14;10,66
3608,21;10,59
3606,28;10,53
3604,35;10,48
3602,42;10,43
3600,49;10,39
3598,56;10,35
3596,63;10,31
3594,70;10,26
3592,77;10,21
3590,84;10,16
3588,91;10,09
3586,98;10,01
3585,05;9,94
3583,12;9,86
3581,19;9,79
3579,26;9,70
3577,33;9,62
3575,40;9,54
3573,47;9,45
3571,54;9,37
3569,61;9,29
3567,68;9,21
3565,75;9,13
3563,82;9,05
3561,89;8,97
3559,96;8,90
3558,03;8,82
3556,10;8,75
3554,17;8,68
3552,24;8,60
3550,31;8,53
3548,38;8,46
3546,45;8,39
3544,52;8,32
3542,59;8,25
3540,66;8,18
3538,73;8,12
3536,80;8,06
3534,87;8,00
3532,94;7,95
3531,01;7,90
3529,08;7,86
3527,15;7,82
3525,22;7,78
3523,29;7,75
3521,36;7,72
3519,43;7,70
3517,50;7,67
3515,57;7,66
3513,64;7,64
3511,71;7,62
3509,78;7,60
3507,85;7,59
3505,92;7,57
3503,99;7,55
3502,06;7,53
3500,13;7,51
3498,20;7,49
3496,27;7,46
3494,34;7,43
3492,41;7,39
3490,48;7,35
3488,55;7,30
3486,62;7,26
3484,69;7,20
3482,76;7,15
3480,83;7,09
3478,90;7,04
3476,97;6,99
3475,04;6,94
3473,11;6,91
3471,18;6,89
3469,25;6,88
3467,32;6,87
3465,39;6,87
3463,46;6,88
3461,53;6,90
3459,60;6,91
3457,67;6,93
3455,74;6,95
3453,81;6,97
3451,88;6,99
3449,95;7,01
3448,02;7,02
3446,09;7,04
3444,16;7,05
3442,23;7,06
3440,30;7,07
3438,37;7,07
3436,44;7,08
3434,51;7,09
3432,58;7,10
3430,65;7,11
3428,72;7,12
3426,79;7,13
3424,86;7,13
3422,93;7,14
3421,00;7,15
3419,07;7,16
3417,14;7,17
3415,21;7,18
3413,28;7,19
3411,35;7,20
3409,42;7,21
3407,49;7,22
3405,56;7,23
3403,63;7,25
3401,70;7,26
3399,77;7,27
3397,84;7,29
3395,91;7,31
3393,98;7,32
3392,05;7,34
3390,12;7,37
3388,19;7,40
3386,26;7,42
3384,33;7,45
3382,40;7,48
3380,47;7,52
3378,54;7,55
3376,61;7,58
3374,68;7,62
3372,75;7,65
3370,82;7,69
3368,89;7,73
3366,96;7,77
3365,03;7,81
3363,10;7,85
3361,17;7,90
3359,24;7,94
3357,31;7,99
3355,38;8,03
3353,45;8,08
3351,52;8,12
3349,59;8,17
3347,66;8,22
3345,73;8,27
3343,80;8,31
3341,87;8,36
3339,94;8,41
3338,01;8,46
3336,08;8,52
3334,15;8,57
3332,22;8,62
3330,29;8,67
3328,36;8,72
3326,43;8,77
3324,50;8,82
3322,57;8,87
3320,64;8,92
3318,71;8,97
3316,78;9,02
3314,85;9,06
3312,92;9,11
3310,99;9,15
3309,06;9,19
3307,13;9,23
3305,20;9,27
3303,27;9,32
3301,34;9,36
3299,41;9,40
3297,48;9,44
3295,55;9,48
3293,62;9,52
3291,69;9,56
3289,76;9,60
3287,83;9,64
3285,90;9,68
3283,97;9,72
3282,04;9,76
3280,11;9,80
3278,18;9,84
3276,25;9,88
3274,32;9,91
3272,39;9,95
3270,46;9,99
3268,53;10,02
3266,60;10,06
3264,67;10,10
3262,74;10,13
3260,81;10,17
3258,88;10,20
3256,95;10,24
3255,02;10,27
3253,09;10,31
3251,16;10,34
3249,23;10,38
3247,30;10,41
3245,37;10,45
3243,44;10,48
3241,51;10,51
3239,58;10,55
3237,65;10,58
3235,72;10,61
3233,79;10,64
3231,86;10,67
3229,93;10,70
3228,00;10,73
3226,07;10,76
3224,14;10,79
3222,21;10,81
3220,28;10,83
3218,35;10,86
3216,42;10,88
3214,49;10,90
3212,56;10,92
3210,63;10,94
3208,70;10,96
3206,77;10,98
3204,84;11,00
3202,91;11,02
3200,98;11,04
3199,05;11,07
3197,12;11,10
3195,19;11,13
3193,26;11,17
3191,33;11,21
3189,40;11,26
3187,47;11,31
3185,54;11,37
3183,61;11,43
3181,68;11,50
3179,75;11,57
3177,82;11,65
3175,89;11,72
3173,96;11,81
3172,03;11,89
3170,10;11,98
3168,17;12,07
3166,24;12,17
3164,31;12,26
3162,38;12,36
3160,45;12,47
3158,52;12,57
3156,59;12,67
3154,66;12,78
3152,73;12,88
3150,80;12,99
3148,87;13,10
3146,94;13,21
3145,01;13,32
3143,08;13,42
3141,15;13,53
3139,22;13,64
3137,29;13,74
3135,36;13,85
3133,43;13,95
3131,50;14,05
3129,57;14,14
3127,64;14,24
3125,71;14,33
3123,78;14,42
3121,85;14,50
3119,92;14,58
3117,99;14,66
3116,06;14,74
3114,13;14,81
3112,20;14,87
3110,27;14,93
3108,34;14,98
3106,41;15,02
3104,48;15,06
3102,55;15,10
3100,62;15,13
3098,69;15,16
3096,76;15,18
3094,83;15,19
3092,90;15,19
3090,97;15,17
3089,04;15,14
3087,11;15,10
3085,18;15,04
3083,25;14,96
3081,32;14,87
3079,39;14,75
3077,46;14,62
3075,53;14,48
3073,60;14,32
3071,67;14,16
3069,74;14,01
3067,81;13,86
3065,88;13,73
3063,95;13,62
3062,02;13,52
3060,09;13,44
3058,16;13,35
3056,23;13,25
3054,30;13,14
3052,37;13,01
3050,44;12,85
3048,51;12,67
3046,58;12,47
3044,65;12,25
3042,72;12,01
3040,79;11,75
3038,86;11,45
3036,93;11,12
3035,00;10,75
3033,07;10,33
3031,14;9,87
3029,21;9,35
3027,28;8,77
3025,35;8,13
3023,42;7,42
3021,49;6,65
3019,56;5,83
3017,63;4,98
3015,70;4,17
3013,77;3,44
3011,84;2,84
3009,91;2,37
3007,98;2,04
3006,05;1,82
3004,12;1,67
3002,19;1,57
3000,26;1,49
2998,33;1,39
2996,40;1,26
2994,47;1,09
2992,54;0,90
2990,61;0,70
2988,68;0,52
2986,75;0,37
2984,82;0,24
2982,89;0,15
2980,96;0,09
2979,03;0,06
2977,10;0,04
2975,17;0,03
2973,24;0,03
2971,31;0,03
2969,38;0,02
2967,45;0,02
2965,52;0,02
2963,59;0,02
2961,66;0,02
2959,73;0,02
2957,80;0,02
2955,87;0,02
2953,94;0,02
2952,01;0,02
2950,08;0,02
2948,15;0,02
2946,22;0,02
2944,29;0,02
2942,36;0,01
2940,43;0,01
2938,50;0,01
2936,57;0,01
2934,64;0,01
2932,71;0,01
2930,78;0,01
2928,85;0,01
2926,92;0,01
2924,99;0,01
2923,06;0,01
2921,13;0,01
2919,20;0,01
2917,27;0,01
2915,34;0,01
2913,41;0,01
2911,48;0,01
2909,55;0,01
2907,62;0,01
2905,69;0,01
2903,76;0,01
2901,83;0,01
2899,90;0,01
2897,97;0,01
2896,04;0,02
2894,11;0,02
2892,18;0,02
2890,25;0,02
2888,32;0,02
2886,39;0,02
2884,46;0,02
2882,53;0,02
2880,60;0,02
2878,67;0,02
2876,74;0,02
2874,81;0,02
2872,88;0,02
2870,95;0,02
2869,02;0,02
2867,09;0,02
2865,16;0,02
2863,23;0,02
2861,30;0,02
2859,37;0,02
2857,44;0,02
2855,51;0,02
2853,58;0,02
2851,65;0,02
2849,72;0,02
2847,79;0,02
2845,86;0,02
2843,93;0,02
2842,00;0,02
2840,07;0,02
2838,14;0,03
2836,21;0,04
2834,28;0,07
2832,35;0,13
2830,42;0,24
2828,49;0,39
2826,56;0,60
2824,63;0,85
2822,70;1,14
2820,77;1,47
2818,84;1,83
2816,91;2,23
2814,98;2,65
2813,05;3,10
2811,12;3,57
2809,19;4,06
2807,26;4,57
2805,33;5,10
2803,40;5,63
2801,47;6,17
2799,54;6,71
2797,61;7,25
2795,68;7,80
2793,75;8,34
2791,82;8,90
2789,89;9,46
2787,96;10,04
2786,03;10,62
2784,10;11,21
2782,17;11,80
2780,24;12,39
2778,31;12,95
2776,38;13,48
2774,45;13,97
2772,52;14,42
2770,59;14,82
2768,66;15,18
2766,73;15,48
2764,80;15,74
2762,87;15,95
2760,94;16,12
2759,01;16,28
2757,08;16,42
2755,15;16,54
2753,22;16,65
2751,29;16,72
2749,36;16,76
2747,43;16,76
2745,50;16,72
2743,57;16,63
2741,64;16,50
2739,71;16,31
2737,78;16,05
2735,85;15,75
2733,92;15,41
2731,99;15,11
2730,06;14,92
2728,13;14,89
2726,20;15,00
2724,27;15,20
2722,34;15,42
2720,41;15,67
2718,48;15,95
2716,55;16,26
2714,62;16,61
2712,69;16,99
2710,76;17,35
2708,83;17,66
2706,90;17,90
2704,97;18,07
2703,04;18,18
2701,11;18,24
2699,18;18,23
2697,25;18,18
2695,32;18,09
2693,39;17,96
2691,46;17,82
2689,53;17,67
2687,60;17,55
2685,67;17,45
2683,74;17,38
2681,81;17,34
2679,88;17,31
2677,95;17,31
2676,02;17,31
2674,09;17,32
2672,16;17,36
2670,23;17,43
2668,30;17,56
2666,37;17,73
2664,44;17,95
2662,51;18,20
2660,58;18,45
2658,65;18,70
2656,72;18,95
2654,79;19,18
2652,86;19,39
2650,93;19,58
2649,00;19,75
2647,07;19,91
2645,14;20,05
2643,21;20,19
2641,28;20,31
2639,35;20,43
2637,42;20,55
2635,49;20,66
2633,56;20,78
2631,63;20,89
2629,70;21,01
2627,77;21,13
2625,84;21,25
2623,91;21,37
2621,98;21,49
2620,05;21,61
2618,12;21,72
2616,19;21,84
2614,26;21,95
2612,33;22,07
2610,40;22,19
2608,47;22,32
2606,54;22,45
2604,61;22,59
2602,68;22,74
2600,75;22,89
2598,82;23,06
2596,89;23,23
2594,96;23,41
2593,03;23,60
2591,10;23,79
2589,17;23,99
2587,24;24,20
2585,31;24,42
2583,38;24,64
2581,45;24,86
2579,52;25,09
2577,59;25,33
2575,66;25,56
2573,73;25,80
2571,80;26,03
2569,87;26,25
2567,94;26,47
2566,01;26,67
2564,08;26,87
2562,15;27,05
2560,22;27,22
2558,29;27,38
2556,36;27,52
2554,43;27,66
2552,50;27,79
2550,57;27,91
2548,64;28,01
2546,71;28,11
2544,78;28,20
2542,85;28,29
2540,92;28,37
2538,99;28,45
2537,06;28,53
2535,13;28,60
2533,20;28,68
2531,27;28,76
2529,34;28,87
2527,41;28,98
2525,48;29,10
2523,55;29,23
2521,62;29,35
2519,69;29,48
2517,76;29,60
2515,83;29,72
2513,90;29,84
2511,97;29,95
2510,04;30,06
2508,11;30,16
2506,18;30,26
2504,25;30,35
2502,32;30,44
2500,39;30,52
2498,46;30,60
2496,53;30,67
2494,60;30,73
2492,67;30,80
2490,74;30,86
2488,81;30,91
2486,88;30,96
2484,95;31,01
2483,02;31,05
2481,09;31,09
2479,16;31,13
2477,23;31,16
2475,30;31,20
2473,37;31,23
2471,44;31,25
2469,51;31,27
2467,58;31,29
2465,65;31,31
2463,72;31,32
2461,79;31,33
2459,86;31,33
2457,93;31,33
2456,00;31,33
2454,07;31,32
2452,14;31,32
2450,21;31,31
2448,28;31,30
2446,35;31,29
2444,42;31,28
2442,49;31,26
2440,56;31,24
2438,63;31,22
2436,70;31,20
2434,77;31,18
2432,84;31,15
2430,91;31,13
2428,98;31,10
2427,05;31,07
2425,12;31,04
2423,19;31,01
2421,26;30,98
2419,33;30,94
2417,40;30,90
2415,47;30,87
2413,54;30,84
2411,61;30,81
2409,68;30,78
2407,75;30,76
2405,82;30,74
2403,89;30,72
2401,96;30,71
2400,03;30,70
2398,10;30,70
2396,17;30,70
2394,24;30,71
2392,31;30,71
2390,38;30,71
2388,45;30,70
2386,52;30,69
2384,59;30,66
2382,66;30,62
2380,73;30,56
2378,80;30,49
2376,87;30,43
2374,94;30,39
2373,01;30,38
2371,08;30,38
2369,15;30,37
2367,22;30,35
2365,29;30,31
2363,36;30,26
2361,43;30,21
2359,50;30,16
2357,57;30,12
2355,64;30,07
2353,71;30,04
2351,78;30,02
2349,85;29,99
2347,92;29,98
2345,99;29,97
2344,06;29,93
2342,13;29,89
2340,20;29,80
2338,27;29,62
2336,34;29,45
2334,41;29,49
2332,48;29,68
2330,55;29,86
2328,62;29,97
2326,69;30,03
2324,76;30,04
2322,83;30,04
2320,90;30,08
2318,97;30,14
2317,04;30,20
2315,11;30,24
2313,18;30,27
2311,25;30,32
2309,32;30,39
2307,39;30,45
2305,46;30,52
2303,53;30,58
2301,60;30,64
2299,67;30,69
2297,74;30,74
2295,81;30,79
2293,88;30,84
2291,95;30,89
2290,02;30,94
2288,09;30,99
2286,16;31,04
2284,23;31,09
2282,30;31,14
2280,37;31,19
2278,44;31,24
2276,51;31,29
2274,58;31,33
2272,65;31,37
2270,72;31,41
2268,79;31,45
2266,86;31,48
2264,93;31,52
2263,00;31,56
2261,07;31,60
2259,14;31,64
2257,21;31,68
2255,28;31,71
2253,35;31,74
2251,42;31,76
2249,49;31,79
2247,56;31,82
2245,63;31,84
2243,70;31,87
2241,77;31,89
2239,84;31,92
2237,91;31,94
2235,98;31,95
2234,05;31,97
2232,12;31,98
2230,19;32,00
2228,26;32,00
2226,33;32,01
2224,40;32,02
2222,47;32,03
2220,54;32,03
2218,61;32,04
2216,68;32,04
2214,75;32,04
2212,82;32,04
2210,89;32,04
2208,96;32,04
2207,03;32,04
2205,10;32,04
2203,17;32,04
2201,24;32,03
2199,31;32,02
2197,38;32,02
2195,45;32,00
2193,52;31,99
2191,59;31,98
2189,66;31,96
2187,73;31,95
2185,80;31,94
2183,87;31,94
2181,94;31,94
2180,01;31,95
2178,08;31,96
2176,15;31,96
2174,22;31,97
2172,29;31,99
2170,36;32,00
2168,43;32,01
2166,50;32,03
2164,57;32,04
2162,64;32,05
2160,71;32,07
2158,78;32,08
2156,85;32,10
2154,92;32,13
2152,99;32,16
2151,06;32,20
2149,13;32,25
2147,20;32,32
2145,27;32,41
2143,34;32,50
2141,41;32,59
2139,48;32,67
2137,55;32,74
2135,62;32,80
2133,69;32,86
2131,76;32,90
2129,83;32,95
2127,90;32,99
2125,97;33,02
2124,04;33,06
2122,11;33,09
2120,18;33,13
2118,25;33,16
2116,32;33,18
2114,39;33,21
2112,46;33,23
2110,53;33,26
2108,60;33,29
2106,67;33,31
2104,74;33,34
2102,81;33,37
2100,88;33,39
2098,95;33,41
2097,02;33,43
2095,09;33,46
2093,16;33,49
2091,23;33,50
2089,30;33,51
2087,37;33,52
2085,44;33,54
2083,51;33,55
2081,58;33,57
2079,65;33,58
2077,72;33,60
2075,79;33,61
2073,86;33,62
2071,93;33,62
2070,00;33,65
2068,07;33,66
2066,14;33,65
2064,21;33,65
2062,28;33,64
2060,35;33,64
2058,42;33,63
2056,49;33,63
2054,56;33,62
2052,63;33,61
2050,70;33,61
2048,77;33,59
2046,84;33,59
2044,91;33,59
2042,98;33,56
2041,05;33,54
2039,12;33,53
2037,19;33,51
2035,26;33,51
2033,33;33,51
2031,40;33,52
2029,47;33,55
2027,54;33,58
2025,61;33,63
2023,68;33,71
2021,75;33,84
2019,82;33,97
2017,89;34,09
2015,96;34,25
2014,03;34,40
2012,10;34,55
2010,17;34,68
2008,24;34,79
2006,31;34,89
2004,38;34,97
2002,45;35,04
2000,52;35,10
1998,59;35,15
1996,66;35,25
1994,73;35,31
1992,80;35,34
1990,87;35,40
1988,94;35,40
1987,01;35,42
1985,08;35,44
1983,15;35,47
1981,22;35,49
1979,29;35,52
1977,36;35,54
1975,43;35,56
1973,50;35,57
1971,57;35,63
1969,64;35,65
1967,71;35,64
1965,78;35,65
1963,85;35,64
1961,92;35,64
1959,99;35,65
1958,06;35,65
1956,13;35,64
1954,20;35,64
1952,27;35,63
1950,34;35,62
1948,41;35,61
1946,48;35,68
1944,55;35,66
1942,62;35,64
1940,69;35,62
1938,76;35,58
1936,83;35,58
1934,90;35,60
1932,97;35,63
1931,04;35,64
1929,11;35,66
1927,18;35,73
1925,25;35,72
1923,32;35,71
1921,39;35,80
1919,46;35,71
1917,53;35,73
1915,60;35,70
1913,67;35,68
1911,74;35,67
1909,81;35,66
1907,88;35,66
1905,95;35,64
1904,02;35,62
1902,09;35,60
1900,16;35,60
1898,23;35,62
1896,30;35,57
1894,37;35,60
1892,44;35,60
1890,51;35,55
1888,58;35,57
1886,65;35,52
1884,72;35,47
1882,79;35,45
1880,86;35,42
1878,93;35,39
1877,00;35,34
1875,07;35,28
1873,14;35,34
1871,21;35,32
1869,28;35,35
1867,35;35,40
1865,42;35,33
1863,49;35,25
1861,56;35,20
1859,63;35,14
1857,70;35,10
1855,77;35,04
1853,84;34,99
1851,91;34,94
1849,98;34,84
1848,05;34,91
1846,12;34,83
1844,19;34,75
1842,26;34,70
1840,33;34,51
1838,40;34,38
1836,47;34,20
1834,54;34,06
1832,61;33,92
1830,68;33,80
1828,75;33,87
1826,82;33,67
1824,89;33,48
1822,96;33,29
1821,03;33,09
1819,10;32,87
1817,17;32,63
1815,24;32,42
1813,31;32,18
1811,38;31,94
1809,45;31,68
1807,52;31,34
1805,59;31,06
1803,66;30,67
1801,73;30,26
1799,80;29,85
1797,87;29,36
1795,94;28,95
1794,01;28,49
1792,08;27,97
1790,15;27,42
1788,22;26,83
1786,29;26,15
1784,36;25,50
1782,43;24,78
1780,50;23,98
1778,57;23,07
1776,64;22,19
1774,71;21,21
1772,78;20,15
1770,85;18,96
1768,92;17,38
1766,99;15,56
1765,06;13,59
1763,13;11,21
1761,20;8,38
1759,27;5,56
1757,34;3,09
1755,41;1,32
1753,48;0,45
1751,55;0,12
1749,62;0,04
1747,69;0,02
1745,76;0,02
1743,83;0,02
1741,90;0,02
1739,97;0,03
1738,04;0,07
1736,11;0,16
1734,18;0,43
1732,25;0,88
1730,32;1,45
1728,39;2,17
1726,46;2,97
1724,53;3,83
1722,60;4,78
1720,67;5,72
1718,74;6,70
1716,81;7,78
1714,88;8,68
1712,95;9,37
1711,02;9,90
1709,09;10,36
1707,16;10,72
1705,23;11,15
1703,30;11,60
1701,37;12,01
1699,44;12,91
1697,51;13,48
1695,58;14,02
1693,65;14,62
1691,72;15,01
1689,79;15,40
1687,86;15,85
1685,93;16,03
1684,00;16,44
1682,07;16,64
1680,14;16,64
1678,21;16,71
1676,28;16,68
1674,35;16,74
1672,42;16,76
1670,49;16,74
1668,56;16,65
1666,63;16,52
1664,70;16,36
1662,77;16,20
1660,84;15,92
1658,91;15,58
1656,98;15,58
1655,05;15,52
1653,12;15,61
1651,19;15,79
1649,26;16,02
1647,33;16,30
1645,40;16,59
1643,47;16,73
1641,54;16,78
1639,61;16,94
1637,68;17,09
1635,75;17,24
1633,82;17,26
1631,89;17,18
1629,96;17,25
1628,03;17,58
1626,10;18,03
1624,17;18,40
1622,24;18,74
1620,31;19,00
1618,38;19,05
1616,45;19,09
1614,52;19,12
1612,59;19,08
1610,66;19,12
1608,73;19,17
1606,80;19,26
1604,87;19,37
1602,94;19,49
1601,01;19,63
1599,08;19,87
1597,15;20,23
1595,22;20,61
1593,29;20,95
1591,36;21,23
1589,43;21,52
1587,50;21,79
1585,57;22,02
1583,64;22,17
1581,71;22,26
1579,78;22,51
1577,85;22,66
1575,92;22,83
1573,99;23,06
1572,06;23,20
1570,13;23,45
1568,20;23,75
1566,27;23,82
1564,34;23,97
1562,41;24,18
1560,48;24,21
1558,55;24,83
1556,62;25,07
1554,69;25,06
1552,76;25,25
1550,83;25,35
1548,90;25,57
1546,97;25,70
1545,04;25,73
1543,11;25,98
1541,18;26,31
1539,25;26,39
1537,32;26,36
1535,39;26,31
1533,46;26,33
1531,53;26,24
1529,60;26,04
1527,67;25,66
1525,74;25,30
1523,81;25,02
1521,88;24,39
1519,95;23,75
1518,02;23,11
1516,09;22,51
1514,16;22,08
1512,23;21,81
1510,30;21,80
1508,37;21,57
1506,44;21,22
1504,51;20,59
1502,58;19,92
1500,65;19,27
1498,72;18,61
1496,79;17,60
1494,86;16,37
1492,93;15,13
1491,00;13,61
1489,07;11,94
1487,14;10,31
1485,21;8,67
1483,28;6,97
1481,35;5,22
1479,42;3,65
1477,49;2,42
1475,56;1,46
1473,63;0,74
1471,70;0,25
1469,77;0,07
1467,84;0,02
1465,91;0,02
1463,98;0,02
1462,05;0,02
1460,12;0,02
1458,19;0,02
1456,26;0,02
1454,33;0,03
1452,40;0,03
1450,47;0,05
1448,54;0,07
1446,61;0,11
1444,68;0,17
1442,75;0,27
1440,82;0,40
1438,89;0,58
1436,96;0,87
1435,03;1,33
1433,10;1,95
1431,17;2,83
1429,24;3,90
1427,31;4,92
1425,38;5,64
1423,45;6,08
1421,52;6,23
1419,59;6,23
1417,66;6,35
1415,73;6,74
1413,80;7,40
1411,87;8,17
1409,94;8,78
1408,01;9,08
1406,08;9,00
1404,15;8,68
1402,22;8,35
1400,29;7,99
1398,36;7,48
1396,43;6,75
1394,50;5,81
1392,57;4,83
1390,64;3,94
1388,71;3,05
1386,78;2,16
1384,85;1,43
1382,92;0,89
1380,99;0,48
1379,06;0,22
1377,13;0,15
1375,20;0,25
1373,27;0,53
1371,34;0,84
1369,41;1,01
1367,48;1,03
1365,55;1,14
1363,62;1,54
1361,69;2,10
1359,76;2,56
1357,83;2,86
1355,90;3,03
1353,97;3,15
1352,04;3,30
1350,11;3,56
1348,18;3,91
1346,25;4,27
1344,32;4,60
1342,39;4,90
1340,46;5,26
1338,53;5,75
1336,60;6,29
1334,67;6,78
1332,74;7,19
1330,81;7,50
1328,88;7,66
1326,95;7,65
1325,02;7,47
1323,09;7,21
1321,16;6,91
1319,23;6,62
1317,30;6,38
1315,37;6,19
1313,44;6,04
1311,51;5,92
1309,58;5,80
1307,65;5,68
1305,72;5,57
1303,79;5,47
1301,86;5,42
1299,93;5,43
1298,00;5,47
1296,07;5,50
1294,14;5,52
1292,21;5,53
1290,28;5,52
1288,35;5,46
1286,42;5,34
1284,49;5,16
1282,56;4,98
1280,63;4,81
1278,70;4,71
1276,77;4,66
1274,84;4,63
1272,91;4,60
1270,98;4,53
1269,05;4,43
1267,12;4,31
1265,19;4,19
1263,26;4,06
1261,33;3,91
1259,40;3,76
1257,47;3,60
1255,54;3,44
1253,61;3,25
1251,68;3,03
1249,75;2,78
1247,82;2,52
1245,89;2,29
1243,96;2,12
1242,03;2,00
1240,10;1,94
1238,17;1,91
1236,24;1,91
1234,31;1,94
1232,38;2,00
1230,45;2,09
1228,52;2,21
1226,59;2,33
1224,66;2,45
1222,73;2,56
1220,80;2,65
1218,87;2,71
1216,94;2,75
1215,01;2,75
1213,08;2,72
1211,15;2,68
1209,22;2,62
1207,29;2,55
1205,36;2,45
1203,43;2,34
1201,50;2,21
1199,57;2,06
1197,64;1,91
1195,71;1,74
1193,78;1,57
1191,85;1,41
1189,92;1,26
1187,99;1,12
1186,06;1,01
1184,13;0,90
1182,20;0,80
1180,27;0,71
1178,34;0,64
1176,41;0,58
1174,48;0,52
1172,55;0,47
1170,62;0,43
1168,69;0,39
1166,76;0,37
1164,83;0,35
1162,90;0,34
1160,97;0,33
1159,04;0,32
1157,11;0,33
1155,18;0,34
1153,25;0,36
1151,32;0,40
1149,39;0,44
1147,46;0,50
1145,53;0,57
1143,60;0,65
1141,67;0,77
1139,74;0,94
1137,81;1,18
1135,88;1,48
1133,95;1,82
1132,02;2,18
1130,09;2,49
1128,16;2,68
1126,23;2,73
1124,30;2,65
1122,37;2,54
1120,44;2,47
1118,51;2,50
1116,58;2,64
1114,65;2,87
1112,72;3,15
1110,79;3,47
1108,86;3,80
1106,93;4,10
1105,00;4,33
1103,07;4,45
1101,14;4,46
1099,21;4,38
1097,28;4,26
1095,35;4,19
1093,42;4,18
1091,49;4,27
1089,56;4,42
1087,63;4,61
1085,70;4,82
1083,77;5,05
1081,84;5,33
1079,91;5,68
1077,98;6,08
1076,05;6,49
1074,12;6,87
1072,19;7,17
1070,26;7,38
1068,33;7,51
1066,40;7,61
1064,47;7,71
1062,54;7,82
1060,61;7,96
1058,68;8,12
1056,75;8,34
1054,82;8,67
1052,89;9,18
1050,96;9,84
1049,03;10,59
1047,10;11,32
1045,17;11,89
1043,24;12,24
1041,31;12,36
1039,38;12,28
1037,45;12,07
1035,52;11,79
1033,59;11,47
1031,66;11,11
1029,73;10,72
1027,80;10,33
1025,87;9,97
1023,94;9,65
1022,01;9,39
1020,08;9,20
1018,15;9,09
1016,22;9,06
1014,29;9,11
1012,36;9,22
1010,43;9,40
1008,50;9,62
1006,57;9,84
1004,64;9,98
1002,71;9,99
1000,78;9,93
998,85;9,89
996,92;9,94
994,99;10,12
993,06;10,43
991,13;10,80
989,20;11,18
987,27;11,58
985,34;12,05
983,41;12,62
981,48;13,22
979,55;13,75
977,62;14,11
975,69;14,27
973,76;14,22
971,83;14,01
969,90;13,72
967,97;13,50
966,04;13,52
964,11;13,93
962,18;14,69
960,25;15,54
958,32;16,26
956,39;16,78
954,46;17,12
952,53;17,34
950,60;17,48
948,67;17,52
946,74;17,49
944,81;17,42
942,88;17,36
940,95;17,29
939,02;17,22
937,09;17,16
935,16;17,16
933,23;17,20
931,30;17,29
929,37;17,40
927,44;17,52
925,51;17,60
923,58;17,60
921,65;17,52
919,72;17,43
917,79;17,48
915,86;17,67
913,93;17,92
912,00;18,12
910,07;18,26
908,14;18,38
906,21;18,52
904,28;18,65
902,35;18,73
900,42;18,72
898,49;18,62
896,56;18,44
894,63;18,21
892,70;17,95
890,77;17,74
888,84;17,73
886,91;17,99
884,98;18,36
883,05;18,70
881,12;18,93
879,19;19,08
877,26;19,14
875,33;19,17
873,40;19,17
871,47;19,17
869,54;19,19
867,61;19,23
865,68;19,28
863,75;19,35
861,82;19,42
859,89;19,46
857,96;19,44
856,03;19,36
854,10;19,28
852,17;19,24
850,24;19,28
848,31;19,35
846,38;19,45
844,45;19,57
842,52;19,72
840,59;19,90
838,66;20,04
836,73;20,11
834,80;20,16
832,87;20,17
830,94;20,17
829,01;20,14
827,08;20,07
825,15;19,95
823,22;19,81
821,29;19,65
819,36;19,48
817,43;19,31
815,50;19,24
813,57;19,34
811,64;19,53
809,71;19,68
807,78;19,76
805,85;19,80
803,92;19,89
801,99;20,01
800,06;20,06
798,13;19,94
796,20;19,65
794,27;19,25
792,34;18,77
790,41;18,19
788,48;17,46
786,55;16,65
784,62;15,83
782,69;15,16
780,76;14,74
778,83;14,53
776,90;14,48
774,97;14,54
773,04;14,57
771,11;14,51
769,18;14,45
767,25;14,45
765,32;14,48
763,39;14,50
761,46;14,44
759,53;14,29
757,60;14,03
755,67;13,66
753,74;13,22
751,81;12,75
749,88;12,27
747,95;11,76
746,02;11,18
744,09;10,53
742,16;9,88
740,23;9,24
738,30;8,63
736,37;8,01
734,44;7,35
732,51;6,62
730,58;5,81
728,65;4,94
726,72;4,09
724,79;3,34
722,86;2,92
720,93;3,09
719,00;3,98
717,07;5,33
715,14;6,79
713,21;8,15
711,28;9,42
709,35;10,56
707,42;11,57
705,49;12,40
703,56;13,07
701,63;13,56
699,70;13,98
697,77;14,49
695,84;15,12
693,91;15,73
691,98;16,21
690,05;16,60
688,12;17,00
686,19;17,46
684,26;17,94
682,33;18,40
680,40;18,78
678,47;19,14
676,54;19,45
674,61;19,75
672,68;20,05
670,75;20,29
668,82;20,51
666,89;20,89
664,96;21,10
663,03;21,21
661,10;21,32
659,17;21,44
657,24;21,59
655,31;21,74
653,38;21,88
651,45;22,03
649,52;22,16
647,59;22,28
645,66;22,40
643,73;22,51
641,80;22,62
639,87;22,69
637,94;22,75
636,01;22,80
634,08;22,84
632,15;22,85
630,22;22,83
628,29;22,80
626,36;22,74
624,43;22,64
622,50;22,53
620,57;22,37
618,64;22,19
616,71;22,05
614,78;21,95
612,85;21,86
610,92;21,77
608,99;21,69
607,06;21,62
605,13;21,57
603,20;21,56
601,27;21,59
599,34;21,64
597,41;21,70
595,48;21,78
593,55;21,84
591,62;21,86
589,69;21,84
587,76;21,83
585,83;21,85
583,90;21,91
581,97;22,00
580,04;22,13
578,11;22,32
576,18;22,55
574,25;22,80
572,32;23,06
570,39;23,34
568,46;23,60
566,53;23,84
564,60;24,07
562,67;24,32
560,74;24,55
558,81;24,75
556,88;24,90
554,95;25,04
553,02;25,18
551,09;25,31
549,16;25,42
547,23;25,52
545,30;25,63
543,37;25,75
541,44;25,84
539,51;25,93
537,58;26,02
535,65;26,13
533,72;26,24
531,79;26,32
529,86;26,41
527,93;26,54
526,00;26,66
524,07;26,72
522,14;26,82
520,21;27,00
518,28;27,16
516,35;27,24
514,42;27,30
512,49;27,41
510,56;27,54
508,63;27,66
506,70;27,77
504,77;27,91
502,84;28,07
500,91;28,13
