Created as New Dataset;Amostra 404 por Laboratório data segunda-feira, setembro 23 2024
cm-1;%T
4000,00;12,13
3998,07;12,15
3996,14;12,17
3994,21;12,19
3992,28;12,22
3990,35;12,25
3988,42;12,28
3986,49;12,31
3984,56;12,34
3982,63;12,37
3980,70;12,40
3978,77;12,43
3976,84;12,46
3974,91;12,48
3972,98;12,50
3971,05;12,51
3969,12;12,53
3967,19;12,55
3965,26;12,56
3963,33;12,58
3961,40;12,59
3959,47;12,60
3957,54;12,61
3955,61;12,62
3953,68;12,62
3951,75;12,63
3949,82;12,65
3947,89;12,65
3945,96;12,66
3944,03;12,67
3942,10;12,67
3940,17;12,68
3938,24;12,68
3936,31;12,68
3934,38;12,69
3932,45;12,70
3930,52;12,70
3928,59;12,70
3926,66;12,71
3924,73;12,71
3922,80;12,71
3920,87;12,72
3918,94;12,72
3917,01;12,73
3915,08;12,73
3913,15;12,73
3911,22;12,73
3909,29;12,73
3907,36;12,73
3905,43;12,74
3903,50;12,75
3901,57;12,77
3899,64;12,78
3897,71;12,78
3895,78;12,77
3893,85;12,77
3891,92;12,76
3889,99;12,76
3888,06;12,77
3886,13;12,78
3884,20;12,78
3882,27;12,78
3880,34;12,78
3878,41;12,78
3876,48;12,78
3874,55;12,78
3872,62;12,77
3870,69;12,79
3868,76;12,79
3866,83;12,79
3864,90;12,79
3862,97;12,79
3861,04;12,78
3859,11;12,77
3857,18;12,75
3855,25;12,73
3853,32;12,75
3851,39;12,77
3849,46;12,76
3847,53;12,74
3845,60;12,72
3843,67;12,70
3841,74;12,69
3839,81;12,69
3837,88;12,69
3835,95;12,68
3834,02;12,67
3832,09;12,65
3830,16;12,64
3828,23;12,62
3826,30;12,60
3824,37;12,58
3822,44;12,57
3820,51;12,56
3818,58;12,56
3816,65;12,56
3814,72;12,54
3812,79;12,52
3810,86;12,49
3808,93;12,47
3807,00;12,46
3805,07;12,45
3803,14;12,45
3801,21;12,44
3799,28;12,42
3797,35;12,41
3795,42;12,38
3793,49;12,35
3791,56;12,32
3789,63;12,29
3787,70;12,26
3785,77;12,24
3783,84;12,21
3781,91;12,19
3779,98;12,16
3778,05;12,14
3776,12;12,12
3774,19;12,09
3772,26;12,05
3770,33;12,03
3768,40;12,00
3766,47;11,97
3764,54;11,93
3762,61;11,89
3760,68;11,85
3758,75;11,81
3756,82;11,77
3754,89;11,73
3752,96;11,70
3751,03;11,66
3749,10;11,62
3747,17;11,57
3745,24;11,52
3743,31;11,46
3741,38;11,40
3739,45;11,33
3737,52;11,27
3735,59;11,19
3733,66;11,12
3731,73;11,04
3729,80;10,95
3727,87;10,86
3725,94;10,76
3724,01;10,67
3722,08;10,56
3720,15;10,45
3718,22;10,34
3716,29;10,22
3714,36;10,10
3712,43;9,97
3710,50;9,82
3708,57;9,66
3706,64;9,50
3704,71;9,33
3702,78;9,14
3700,85;8,94
3698,92;8,73
3696,99;8,53
3695,06;8,31
3693,13;8,08
3691,20;7,84
3689,27;7,59
3687,34;7,32
3685,41;7,07
3683,48;6,80
3681,55;6,54
3679,62;6,27
3677,69;6,01
3675,76;5,72
3673,83;5,43
3671,90;5,17
3669,97;4,89
3668,04;4,60
3666,11;4,34
3664,18;4,09
3662,25;3,85
3660,32;3,63
3658,39;3,42
3656,46;3,21
3654,53;3,02
3652,60;2,84
3650,67;2,67
3648,74;2,50
3646,81;2,33
3644,88;2,19
3642,95;2,05
3641,02;1,93
3639,09;1,82
3637,16;1,71
3635,23;1,62
3633,30;1,53
3631,37;1,45
3629,44;1,37
3627,51;1,29
3625,58;1,21
3623,65;1,14
3621,72;1,08
3619,79;1,03
3617,86;0,97
3615,93;0,92
3614,00;0,87
3612,07;0,82
3610,14;0,78
3608,21;0,74
3606,28;0,69
3604,35;0,65
3602,42;0,62
3600,49;0,59
3598,56;0,56
3596,63;0,53
3594,70;0,51
3592,77;0,48
3590,84;0,45
3588,91;0,43
3586,98;0,40
3585,05;0,37
3583,12;0,36
3581,19;0,34
3579,26;0,32
3577,33;0,31
3575,40;0,29
3573,47;0,28
3571,54;0,26
3569,61;0,25
3567,68;0,24
3565,75;0,23
3563,82;0,22
3561,89;0,20
3559,96;0,19
3558,03;0,19
3556,10;0,18
3554,17;0,17
3552,24;0,16
3550,31;0,15
3548,38;0,14
3546,45;0,13
3544,52;0,12
3542,59;0,12
3540,66;0,12
3538,73;0,12
3536,80;0,11
3534,87;0,11
3532,94;0,11
3531,01;0,11
3529,08;0,11
3527,15;0,10
3525,22;0,09
3523,29;0,09
3521,36;0,09
3519,43;0,09
3517,50;0,08
3515,57;0,08
3513,64;0,07
3511,71;0,07
3509,78;0,07
3507,85;0,07
3505,92;0,06
3503,99;0,06
3502,06;0,05
3500,13;0,05
3498,20;0,05
3496,27;0,05
3494,34;0,04
3492,41;0,04
3490,48;0,04
3488,55;0,04
3486,62;0,04
3484,69;0,04
3482,76;0,04
3480,83;0,04
3478,90;0,04
3476,97;0,04
3475,04;0,04
3473,11;0,04
3471,18;0,04
3469,25;0,03
3467,32;0,03
3465,39;0,04
3463,46;0,04
3461,53;0,04
3459,60;0,04
3457,67;0,04
3455,74;0,04
3453,81;0,04
3451,88;0,04
3449,95;0,04
3448,02;0,04
3446,09;0,04
3444,16;0,04
3442,23;0,04
3440,30;0,03
3438,37;0,03
3436,44;0,02
3434,51;0,03
3432,58;0,03
3430,65;0,03
3428,72;0,03
3426,79;0,03
3424,86;0,03
3422,93;0,03
3421,00;0,03
3419,07;0,03
3417,14;0,03
3415,21;0,02
3413,28;0,02
3411,35;0,02
3409,42;0,02
3407,49;0,02
3405,56;0,02
3403,63;0,02
3401,70;0,01
3399,77;0,02
3397,84;0,02
3395,91;0,02
3393,98;0,02
3392,05;0,02
3390,12;0,02
3388,19;0,02
3386,26;0,02
3384,33;0,02
3382,40;0,02
3380,47;0,02
3378,54;0,02
3376,61;0,02
3374,68;0,02
3372,75;0,02
3370,82;0,02
3368,89;0,02
3366,96;0,02
3365,03;0,02
3363,10;0,02
3361,17;0,02
3359,24;0,02
3357,31;0,02
3355,38;0,02
3353,45;0,02
3351,52;0,02
3349,59;0,02
3347,66;0,02
3345,73;0,02
3343,80;0,02
3341,87;0,02
3339,94;0,02
3338,01;0,02
3336,08;0,02
3334,15;0,02
3332,22;0,02
3330,29;0,02
3328,36;0,02
3326,43;0,02
3324,50;0,02
3322,57;0,02
3320,64;0,02
3318,71;0,02
3316,78;0,02
3314,85;0,02
3312,92;0,02
3310,99;0,02
3309,06;0,02
3307,13;0,02
3305,20;0,02
3303,27;0,03
3301,34;0,03
3299,41;0,03
3297,48;0,03
3295,55;0,03
3293,62;0,03
3291,69;0,03
3289,76;0,03
3287,83;0,03
3285,90;0,03
3283,97;0,04
3282,04;0,04
3280,11;0,04
3278,18;0,04
3276,25;0,04
3274,32;0,04
3272,39;0,04
3270,46;0,04
3268,53;0,04
3266,60;0,05
3264,67;0,05
3262,74;0,05
3260,81;0,05
3258,88;0,05
3256,95;0,05
3255,02;0,06
3253,09;0,06
3251,16;0,06
3249,23;0,06
3247,30;0,07
3245,37;0,07
3243,44;0,07
3241,51;0,07
3239,58;0,08
3237,65;0,08
3235,72;0,08
3233,79;0,09
3231,86;0,09
3229,93;0,10
3228,00;0,10
3226,07;0,11
3224,14;0,11
3222,21;0,11
3220,28;0,12
3218,35;0,13
3216,42;0,13
3214,49;0,14
3212,56;0,15
3210,63;0,15
3208,70;0,16
3206,77;0,17
3204,84;0,18
3202,91;0,19
3200,98;0,20
3199,05;0,21
3197,12;0,22
3195,19;0,23
3193,26;0,25
3191,33;0,26
3189,40;0,27
3187,47;0,29
3185,54;0,30
3183,61;0,32
3181,68;0,34
3179,75;0,36
3177,82;0,38
3175,89;0,40
3173,96;0,42
3172,03;0,44
3170,10;0,47
3168,17;0,49
3166,24;0,52
3164,31;0,55
3162,38;0,58
3160,45;0,61
3158,52;0,65
3156,59;0,68
3154,66;0,71
3152,73;0,75
3150,80;0,79
3148,87;0,83
3146,94;0,88
3145,01;0,92
3143,08;0,97
3141,15;1,01
3139,22;1,06
3137,29;1,11
3135,36;1,17
3133,43;1,22
3131,50;1,28
3129,57;1,34
3127,64;1,40
3125,71;1,46
3123,78;1,52
3121,85;1,58
3119,92;1,64
3117,99;1,71
3116,06;1,78
3114,13;1,85
3112,20;1,92
3110,27;1,99
3108,34;2,06
3106,41;2,14
3104,48;2,21
3102,55;2,29
3100,62;2,36
3098,69;2,44
3096,76;2,52
3094,83;2,59
3092,90;2,66
3090,97;2,73
3089,04;2,80
3087,11;2,87
3085,18;2,94
3083,25;3,01
3081,32;3,08
3079,39;3,14
3077,46;3,21
3075,53;3,27
3073,60;3,33
3071,67;3,39
3069,74;3,44
3067,81;3,49
3065,88;3,54
3063,95;3,59
3062,02;3,64
3060,09;3,69
3058,16;3,74
3056,23;3,79
3054,30;3,83
3052,37;3,87
3050,44;3,91
3048,51;3,95
3046,58;3,98
3044,65;4,00
3042,72;4,02
3040,79;4,03
3038,86;4,04
3036,93;4,03
3035,00;4,01
3033,07;3,98
3031,14;3,94
3029,21;3,88
3027,28;3,82
3025,35;3,75
3023,42;3,67
3021,49;3,58
3019,56;3,48
3017,63;3,36
3015,70;3,22
3013,77;3,08
3011,84;2,91
3009,91;2,73
3007,98;2,54
3006,05;2,33
3004,12;2,11
3002,19;1,88
3000,26;1,65
2998,33;1,42
2996,40;1,21
2994,47;1,00
2992,54;0,81
2990,61;0,64
2988,68;0,50
2986,75;0,37
2984,82;0,26
2982,89;0,17
2980,96;0,10
2979,03;0,06
2977,10;0,03
2975,17;0,02
2973,24;0,01
2971,31;0,01
2969,38;0,01
2967,45;0,01
2965,52;0,01
2963,59;0,01
2961,66;0,01
2959,73;0,01
2957,80;0,01
2955,87;0,01
2953,94;0,00
2952,01;0,00
2950,08;0,00
2948,15;0,00
2946,22;0,00
2944,29;0,00
2942,36;0,00
2940,43;0,00
2938,50;0,00
2936,57;0,00
2934,64;0,00
2932,71;0,00
2930,78;0,00
2928,85;0,00
2926,92;0,00
2924,99;0,00
2923,06;0,00
2921,13;0,00
2919,20;0,00
2917,27;0,00
2915,34;0,00
2913,41;0,00
2911,48;0,00
2909,55;0,00
2907,62;0,00
2905,69;0,00
2903,76;0,00
2901,83;0,00
2899,90;0,00
2897,97;0,00
2896,04;0,00
2894,11;0,00
2892,18;0,00
2890,25;0,00
2888,32;0,00
2886,39;0,00
2884,46;0,00
2882,53;0,00
2880,60;0,00
2878,67;0,00
2876,74;0,00
2874,81;0,00
2872,88;0,00
2870,95;0,00
2869,02;0,00
2867,09;0,01
2865,16;0,01
2863,23;0,01
2861,30;0,01
2859,37;0,01
2857,44;0,01
2855,51;0,01
2853,58;0,01
2851,65;0,01
2849,72;0,01
2847,79;0,01
2845,86;0,01
2843,93;0,01
2842,00;0,01
2840,07;0,01
2838,14;0,02
2836,21;0,06
2834,28;0,12
2832,35;0,23
2830,42;0,40
2828,49;0,61
2826,56;0,87
2824,63;1,15
2822,70;1,46
2820,77;1,79
2818,84;2,14
2816,91;2,51
2814,98;2,89
2813,05;3,29
2811,12;3,70
2809,19;4,12
2807,26;4,56
2805,33;5,01
2803,40;5,45
2801,47;5,90
2799,54;6,35
2797,61;6,79
2795,68;7,24
2793,75;7,68
2791,82;8,12
2789,89;8,57
2787,96;9,03
2786,03;9,49
2784,10;9,96
2782,17;10,42
2780,24;10,87
2778,31;11,31
2776,38;11,72
2774,45;12,10
2772,52;12,45
2770,59;12,77
2768,66;13,05
2766,73;13,29
2764,80;13,50
2762,87;13,67
2760,94;13,81
2759,01;13,93
2757,08;14,04
2755,15;14,14
2753,22;14,22
2751,29;14,28
2749,36;14,31
2747,43;14,31
2745,50;14,28
2743,57;14,22
2741,64;14,11
2739,71;13,95
2737,78;13,75
2735,85;13,50
2733,92;13,23
2731,99;12,98
2730,06;12,82
2728,13;12,79
2726,20;12,88
2724,27;13,02
2722,34;13,20
2720,41;13,40
2718,48;13,63
2716,55;13,90
2714,62;14,20
2712,69;14,52
2710,76;14,82
2708,83;15,08
2706,90;15,29
2704,97;15,45
2703,04;15,56
2701,11;15,63
2699,18;15,67
2697,25;15,67
2695,32;15,64
2693,39;15,59
2691,46;15,53
2689,53;15,47
2687,60;15,42
2685,67;15,39
2683,74;15,38
2681,81;15,39
2679,88;15,41
2677,95;15,43
2676,02;15,46
2674,09;15,48
2672,16;15,52
2670,23;15,58
2668,30;15,68
2666,37;15,83
2664,44;16,00
2662,51;16,18
2660,58;16,37
2658,65;16,56
2656,72;16,75
2654,79;16,93
2652,86;17,09
2650,93;17,24
2649,00;17,37
2647,07;17,50
2645,14;17,62
2643,21;17,74
2641,28;17,85
2639,35;17,95
2637,42;18,05
2635,49;18,14
2633,56;18,23
2631,63;18,32
2629,70;18,40
2627,77;18,48
2625,84;18,56
2623,91;18,64
2621,98;18,72
2620,05;18,80
2618,12;18,89
2616,19;18,97
2614,26;19,06
2612,33;19,15
2610,40;19,24
2608,47;19,34
2606,54;19,45
2604,61;19,56
2602,68;19,68
2600,75;19,80
2598,82;19,94
2596,89;20,08
2594,96;20,24
2593,03;20,40
2591,10;20,56
2589,17;20,74
2587,24;20,92
2585,31;21,10
2583,38;21,29
2581,45;21,48
2579,52;21,68
2577,59;21,87
2575,66;22,07
2573,73;22,27
2571,80;22,46
2569,87;22,65
2567,94;22,83
2566,01;23,00
2564,08;23,16
2562,15;23,31
2560,22;23,46
2558,29;23,59
2556,36;23,72
2554,43;23,84
2552,50;23,95
2550,57;24,05
2548,64;24,14
2546,71;24,23
2544,78;24,32
2542,85;24,40
2540,92;24,48
2538,99;24,56
2537,06;24,63
2535,13;24,69
2533,20;24,77
2531,27;24,84
2529,34;24,93
2527,41;25,03
2525,48;25,13
2523,55;25,23
2521,62;25,33
2519,69;25,43
2517,76;25,53
2515,83;25,62
2513,90;25,72
2511,97;25,81
2510,04;25,89
2508,11;25,97
2506,18;26,05
2504,25;26,12
2502,32;26,19
2500,39;26,25
2498,46;26,31
2496,53;26,37
2494,60;26,43
2492,67;26,48
2490,74;26,53
2488,81;26,57
2486,88;26,61
2484,95;26,64
2483,02;26,68
2481,09;26,71
2479,16;26,73
2477,23;26,76
2475,30;26,78
2473,37;26,81
2471,44;26,83
2469,51;26,84
2467,58;26,86
2465,65;26,88
2463,72;26,89
2461,79;26,89
2459,86;26,90
2457,93;26,91
2456,00;26,91
2454,07;26,91
2452,14;26,91
2450,21;26,90
2448,28;26,90
2446,35;26,89
2444,42;26,88
2442,49;26,87
2440,56;26,85
2438,63;26,84
2436,70;26,82
2434,77;26,80
2432,84;26,78
2430,91;26,76
2428,98;26,74
2427,05;26,72
2425,12;26,70
2423,19;26,67
2421,26;26,65
2419,33;26,62
2417,40;26,59
2415,47;26,57
2413,54;26,54
2411,61;26,52
2409,68;26,50
2407,75;26,49
2405,82;26,48
2403,89;26,46
2401,96;26,46
2400,03;26,46
2398,10;26,46
2396,17;26,46
2394,24;26,47
2392,31;26,48
2390,38;26,48
2388,45;26,48
2386,52;26,47
2384,59;26,45
2382,66;26,42
2380,73;26,38
2378,80;26,33
2376,87;26,30
2374,94;26,28
2373,01;26,27
2371,08;26,27
2369,15;26,26
2367,22;26,24
2365,29;26,21
2363,36;26,18
2361,43;26,16
2359,50;26,13
2357,57;26,11
2355,64;26,09
2353,71;26,07
2351,78;26,05
2349,85;26,04
2347,92;26,04
2345,99;26,03
2344,06;26,00
2342,13;25,99
2340,20;25,97
2338,27;25,93
2336,34;25,89
2334,41;25,88
2332,48;25,91
2330,55;25,95
2328,62;25,99
2326,69;26,00
2324,76;26,00
2322,83;25,99
2320,90;26,00
2318,97;26,02
2317,04;26,04
2315,11;26,05
2313,18;26,06
2311,25;26,07
2309,32;26,10
2307,39;26,12
2305,46;26,15
2303,53;26,18
2301,60;26,20
2299,67;26,22
2297,74;26,24
2295,81;26,26
2293,88;26,28
2291,95;26,29
2290,02;26,30
2288,09;26,31
2286,16;26,32
2284,23;26,33
2282,30;26,34
2280,37;26,35
2278,44;26,37
2276,51;26,38
2274,58;26,40
2272,65;26,40
2270,72;26,41
2268,79;26,41
2266,86;26,42
2264,93;26,42
2263,00;26,43
2261,07;26,43
2259,14;26,44
2257,21;26,44
2255,28;26,44
2253,35;26,44
2251,42;26,44
2249,49;26,44
2247,56;26,44
2245,63;26,43
2243,70;26,43
2241,77;26,42
2239,84;26,41
2237,91;26,40
2235,98;26,38
2234,05;26,37
2232,12;26,35
2230,19;26,33
2228,26;26,31
2226,33;26,30
2224,40;26,27
2222,47;26,26
2220,54;26,23
2218,61;26,21
2216,68;26,19
2214,75;26,17
2212,82;26,14
2210,89;26,12
2208,96;26,09
2207,03;26,07
2205,10;26,05
2203,17;26,02
2201,24;26,00
2199,31;25,98
2197,38;25,96
2195,45;25,93
2193,52;25,90
2191,59;25,87
2189,66;25,85
2187,73;25,82
2185,80;25,80
2183,87;25,78
2181,94;25,77
2180,01;25,75
2178,08;25,75
2176,15;25,74
2174,22;25,75
2172,29;25,75
2170,36;25,75
2168,43;25,75
2166,50;25,75
2164,57;25,74
2162,64;25,74
2160,71;25,74
2158,78;25,74
2156,85;25,75
2154,92;25,75
2152,99;25,77
2151,06;25,79
2149,13;25,82
2147,20;25,85
2145,27;25,91
2143,34;25,96
2141,41;26,02
2139,48;26,07
2137,55;26,12
2135,62;26,16
2133,69;26,21
2131,76;26,24
2129,83;26,28
2127,90;26,31
2125,97;26,35
2124,04;26,38
2122,11;26,42
2120,18;26,45
2118,25;26,49
2116,32;26,52
2114,39;26,56
2112,46;26,60
2110,53;26,64
2108,60;26,68
2106,67;26,72
2104,74;26,77
2102,81;26,81
2100,88;26,86
2098,95;26,91
2097,02;26,96
2095,09;27,01
2093,16;27,06
2091,23;27,11
2089,30;27,16
2087,37;27,21
2085,44;27,26
2083,51;27,31
2081,58;27,36
2079,65;27,41
2077,72;27,46
2075,79;27,51
2073,86;27,56
2071,93;27,61
2070,00;27,66
2068,07;27,71
2066,14;27,77
2064,21;27,82
2062,28;27,86
2060,35;27,90
2058,42;27,95
2056,49;27,99
2054,56;28,03
2052,63;28,07
2050,70;28,11
2048,77;28,15
2046,84;28,19
2044,91;28,24
2042,98;28,28
2041,05;28,33
2039,12;28,38
2037,19;28,43
2035,26;28,49
2033,33;28,55
2031,40;28,62
2029,47;28,70
2027,54;28,78
2025,61;28,88
2023,68;28,98
2021,75;29,11
2019,82;29,26
2017,89;29,43
2015,96;29,59
2014,03;29,75
2012,10;29,89
2010,17;30,04
2008,24;30,17
2006,31;30,30
2004,38;30,41
2002,45;30,52
2000,52;30,61
1998,59;30,70
1996,66;30,79
1994,73;30,89
1992,80;30,99
1990,87;31,08
1988,94;31,14
1987,01;31,19
1985,08;31,26
1983,15;31,32
1981,22;31,38
1979,29;31,44
1977,36;31,50
1975,43;31,56
1973,50;31,62
1971,57;31,68
1969,64;31,75
1967,71;31,81
1965,78;31,86
1963,85;31,89
1961,92;31,93
1959,99;31,97
1958,06;32,01
1956,13;32,04
1954,20;32,08
1952,27;32,12
1950,34;32,16
1948,41;32,21
1946,48;32,25
1944,55;32,31
1942,62;32,33
1940,69;32,33
1938,76;32,32
1936,83;32,35
1934,90;32,40
1932,97;32,47
1931,04;32,51
1929,11;32,56
1927,18;32,61
1925,25;32,70
1923,32;32,74
1921,39;32,76
1919,46;32,77
1917,53;32,83
1915,60;32,86
1913,67;32,86
1911,74;32,89
1909,81;32,94
1907,88;32,97
1905,95;32,98
1904,02;32,99
1902,09;33,01
1900,16;33,03
1898,23;33,07
1896,30;33,11
1894,37;33,13
1892,44;33,17
1890,51;33,21
1888,58;33,24
1886,65;33,24
1884,72;33,23
1882,79;33,25
1880,86;33,26
1878,93;33,28
1877,00;33,32
1875,07;33,33
1873,14;33,36
1871,21;33,46
1869,28;33,61
1867,35;33,65
1865,42;33,59
1863,49;33,54
1861,56;33,55
1859,63;33,56
1857,70;33,58
1855,77;33,58
1853,84;33,58
1851,91;33,59
1849,98;33,58
1848,05;33,52
1846,12;33,51
1844,19;33,63
1842,26;33,71
1840,33;33,63
1838,40;33,58
1836,47;33,54
1834,54;33,49
1832,61;33,52
1830,68;33,55
1828,75;33,54
1826,82;33,47
1824,89;33,40
1822,96;33,30
1821,03;33,18
1819,10;33,09
1817,17;33,02
1815,24;32,93
1813,31;32,88
1811,38;32,79
1809,45;32,67
1807,52;32,48
1805,59;32,29
1803,66;32,12
1801,73;32,01
1799,80;31,84
1797,87;31,59
1795,94;31,29
1794,01;31,11
1792,08;31,01
1790,15;30,79
1788,22;30,43
1786,29;30,12
1784,36;29,88
1782,43;29,62
1780,50;29,29
1778,57;28,92
1776,64;28,50
1774,71;28,17
1772,78;28,01
1770,85;27,80
1768,92;27,48
1766,99;27,12
1765,06;26,73
1763,13;26,29
1761,20;25,79
1759,27;25,11
1757,34;24,19
1755,41;22,87
1753,48;21,32
1751,55;19,59
1749,62;17,82
1747,69;16,44
1745,76;15,81
1743,83;15,79
1741,90;16,10
1739,97;16,40
1738,04;16,45
1736,11;16,33
1734,18;16,39
1732,25;16,46
1730,32;16,29
1728,39;16,09
1726,46;15,92
1724,53;15,73
1722,60;15,45
1720,67;15,08
1718,74;14,69
1716,81;14,31
1714,88;13,75
1712,95;13,09
1711,02;12,44
1709,09;11,91
1707,16;11,47
1705,23;11,02
1703,30;10,58
1701,37;10,32
1699,44;10,13
1697,51;9,90
1695,58;9,70
1693,65;9,52
1691,72;9,24
1689,79;8,91
1687,86;8,51
1685,93;8,21
1684,00;7,95
1682,07;7,62
1680,14;7,21
1678,21;6,82
1676,28;6,48
1674,35;6,16
1672,42;5,86
1670,49;5,57
1668,56;5,28
1666,63;5,02
1664,70;4,80
1662,77;4,59
1660,84;4,40
1658,91;4,22
1656,98;4,03
1655,05;3,88
1653,12;3,82
1651,19;3,80
1649,26;3,76
1647,33;3,69
1645,40;3,68
1643,47;3,66
1641,54;3,65
1639,61;3,65
1637,68;3,68
1635,75;3,72
1633,82;3,75
1631,89;3,79
1629,96;3,95
1628,03;4,26
1626,10;4,61
1624,17;4,97
1622,24;5,32
1620,31;5,59
1618,38;5,84
1616,45;6,25
1614,52;6,63
1612,59;6,90
1610,66;7,17
1608,73;7,46
1606,80;7,78
1604,87;8,15
1602,94;8,55
1601,01;8,96
1599,08;9,39
1597,15;9,86
1595,22;10,34
1593,29;10,78
1591,36;11,18
1589,43;11,58
1587,50;11,97
1585,57;12,34
1583,64;12,70
1581,71;13,03
1579,78;13,25
1577,85;13,49
1575,92;13,98
1573,99;14,40
1572,06;14,64
1570,13;14,94
1568,20;15,26
1566,27;15,49
1564,34;15,58
1562,41;15,55
1560,48;15,86
1558,55;16,46
1556,62;16,75
1554,69;16,87
1552,76;17,11
1550,83;17,32
1548,90;17,48
1546,97;17,63
1545,04;17,78
1543,11;17,91
1541,18;18,08
1539,25;18,35
1537,32;18,51
1535,39;18,53
1533,46;18,58
1531,53;18,52
1529,60;18,38
1527,67;18,22
1525,74;18,02
1523,81;17,72
1521,88;17,39
1519,95;17,02
1518,02;16,54
1516,09;15,98
1514,16;15,65
1512,23;15,53
1510,30;15,45
1508,37;15,36
1506,44;15,29
1504,51;15,17
1502,58;14,92
1500,65;14,55
1498,72;14,07
1496,79;13,46
1494,86;12,73
1492,93;11,94
1491,00;11,06
1489,07;10,03
1487,14;8,98
1485,21;7,98
1483,28;6,97
1481,35;5,84
1479,42;4,63
1477,49;3,41
1475,56;2,23
1473,63;1,22
1471,70;0,46
1469,77;0,11
1467,84;0,02
1465,91;0,01
1463,98;0,00
1462,05;0,01
1460,12;0,00
1458,19;0,01
1456,26;0,00
1454,33;0,02
1452,40;0,04
1450,47;0,08
1448,54;0,13
1446,61;0,22
1444,68;0,33
1442,75;0,51
1440,82;0,74
1438,89;1,03
1436,96;1,47
1435,03;2,15
1433,10;2,98
1431,17;4,06
1429,24;5,28
1427,31;6,36
1425,38;7,23
1423,45;7,92
1421,52;8,39
1419,59;8,89
1417,66;9,34
1415,73;9,61
1413,80;9,77
1411,87;9,90
1409,94;9,96
1408,01;9,98
1406,08;9,96
1404,15;9,91
1402,22;9,81
1400,29;9,69
1398,36;9,44
1396,43;9,00
1394,50;8,27
1392,57;7,37
1390,64;6,42
1388,71;5,36
1386,78;4,06
1384,85;2,75
1382,92;1,67
1380,99;0,86
1379,06;0,37
1377,13;0,24
1375,20;0,42
1373,27;0,87
1371,34;1,35
1369,41;1,53
1367,48;1,45
1365,55;1,60
1363,62;2,32
1361,69;3,39
1359,76;4,30
1357,83;4,84
1355,90;5,09
1353,97;5,20
1352,04;5,38
1350,11;5,75
1348,18;6,28
1346,25;6,79
1344,32;7,14
1342,39;7,36
1340,46;7,62
1338,53;8,05
1336,60;8,58
1334,67;9,12
1332,74;9,62
1330,81;10,05
1328,88;10,41
1326,95;10,68
1325,02;10,86
1323,09;10,96
1321,16;10,95
1319,23;10,85
1317,30;10,68
1315,37;10,49
1313,44;10,30
1311,51;10,12
1309,58;9,95
1307,65;9,81
1305,72;9,71
1303,79;9,66
1301,86;9,69
1299,93;9,82
1298,00;10,04
1296,07;10,30
1294,14;10,57
1292,21;10,81
1290,28;11,02
1288,35;11,21
1286,42;11,37
1284,49;11,50
1282,56;11,59
1280,63;11,63
1278,70;11,62
1276,77;11,61
1274,84;11,66
1272,91;11,75
1270,98;11,89
1269,05;12,03
1267,12;12,15
1265,19;12,23
1263,26;12,28
1261,33;12,29
1259,40;12,30
1257,47;12,29
1255,54;12,26
1253,61;12,19
1251,68;12,12
1249,75;12,05
1247,82;12,02
1245,89;12,03
1243,96;12,09
1242,03;12,17
1240,10;12,20
1238,17;12,11
1236,24;11,91
1234,31;11,68
1232,38;11,56
1230,45;11,61
1228,52;11,79
1226,59;12,05
1224,66;12,33
1222,73;12,60
1220,80;12,86
1218,87;13,08
1216,94;13,26
1215,01;13,39
1213,08;13,47
1211,15;13,48
1209,22;13,41
1207,29;13,26
1205,36;13,05
1203,43;12,84
1201,50;12,73
1199,57;12,77
1197,64;12,89
1195,71;13,01
1193,78;13,10
1191,85;13,17
1189,92;13,24
1187,99;13,29
1186,06;13,28
1184,13;13,17
1182,20;12,95
1180,27;12,68
1178,34;12,40
1176,41;12,09
1174,48;11,73
1172,55;11,31
1170,62;10,97
1168,69;10,80
1166,76;10,79
1164,83;10,80
1162,90;10,75
1160,97;10,61
1159,04;10,44
1157,11;10,25
1155,18;10,11
1153,25;10,02
1151,32;9,97
1149,39;9,93
1147,46;9,88
1145,53;9,84
1143,60;9,80
1141,67;9,77
1139,74;9,76
1137,81;9,76
1135,88;9,76
1133,95;9,76
1132,02;9,73
1130,09;9,67
1128,16;9,55
1126,23;9,39
1124,30;9,21
1122,37;9,06
1120,44;8,95
1118,51;8,90
1116,58;8,87
1114,65;8,85
1112,72;8,82
1110,79;8,76
1108,86;8,68
1106,93;8,58
1105,00;8,44
1103,07;8,28
1101,14;8,11
1099,21;7,91
1097,28;7,69
1095,35;7,48
1093,42;7,28
1091,49;7,14
1089,56;7,07
1087,63;7,08
1085,70;7,20
1083,77;7,40
1081,84;7,64
1079,91;7,90
1077,98;8,15
1076,05;8,39
1074,12;8,62
1072,19;8,81
1070,26;8,98
1068,33;9,15
1066,40;9,37
1064,47;9,66
1062,54;10,06
1060,61;10,56
1058,68;11,13
1056,75;11,72
1054,82;12,28
1052,89;12,79
1050,96;13,27
1049,03;13,67
1047,10;13,99
1045,17;14,23
1043,24;14,39
1041,31;14,50
1039,38;14,58
1037,45;14,65
1035,52;14,72
1033,59;14,82
1031,66;14,94
1029,73;15,07
1027,80;15,20
1025,87;15,32
1023,94;15,46
1022,01;15,65
1020,08;15,89
1018,15;16,18
1016,22;16,46
1014,29;16,70
1012,36;16,90
1010,43;17,08
1008,50;17,28
1006,57;17,48
1004,64;17,64
1002,71;17,73
1000,78;17,77
998,85;17,81
996,92;17,84
994,99;17,87
993,06;17,89
991,13;17,90
989,20;17,87
987,27;17,83
985,34;17,75
983,41;17,65
981,48;17,55
979,55;17,44
977,62;17,32
975,69;17,18
973,76;17,03
971,83;16,87
969,90;16,71
967,97;16,57
966,04;16,50
964,11;16,50
962,18;16,58
960,25;16,65
958,32;16,67
956,39;16,60
954,46;16,47
952,53;16,32
950,60;16,16
948,67;15,99
946,74;15,80
944,81;15,63
942,88;15,52
940,95;15,43
939,02;15,37
937,09;15,31
935,16;15,27
933,23;15,26
931,30;15,30
929,37;15,35
927,44;15,39
925,51;15,38
923,58;15,32
921,65;15,21
919,72;15,12
917,79;15,14
915,86;15,29
913,93;15,45
912,00;15,53
910,07;15,52
908,14;15,45
906,21;15,35
904,28;15,19
902,35;14,95
900,42;14,62
898,49;14,19
896,56;13,68
894,63;13,15
892,70;12,63
890,77;12,20
888,84;11,92
886,91;11,79
884,98;11,77
883,05;11,76
881,12;11,74
879,19;11,71
877,26;11,67
875,33;11,60
873,40;11,48
871,47;11,34
869,54;11,17
867,61;11,00
865,68;10,81
863,75;10,61
861,82;10,40
859,89;10,18
857,96;9,93
856,03;9,66
854,10;9,39
852,17;9,13
850,24;8,88
848,31;8,66
846,38;8,49
844,45;8,35
842,52;8,23
840,59;8,13
838,66;8,02
836,73;7,87
834,80;7,70
832,87;7,54
830,94;7,42
829,01;7,30
827,08;7,18
825,15;7,03
823,22;6,86
821,29;6,68
819,36;6,51
817,43;6,34
815,50;6,21
813,57;6,12
811,64;6,03
809,71;5,93
807,78;5,80
805,85;5,70
803,92;5,66
801,99;5,67
800,06;5,65
798,13;5,58
796,20;5,47
794,27;5,35
792,34;5,24
790,41;5,12
788,48;4,97
786,55;4,80
784,62;4,60
782,69;4,39
780,76;4,21
778,83;4,07
776,90;3,94
774,97;3,80
773,04;3,67
771,11;3,55
769,18;3,44
767,25;3,35
765,32;3,32
763,39;3,31
761,46;3,28
759,53;3,22
757,60;3,14
755,67;3,05
753,74;2,96
751,81;2,86
749,88;2,78
747,95;2,70
746,02;2,59
744,09;2,46
742,16;2,33
740,23;2,23
738,30;2,16
736,37;2,09
734,44;2,01
732,51;1,90
730,58;1,74
728,65;1,54
726,72;1,34
724,79;1,16
722,86;1,03
720,93;1,05
719,00;1,24
717,07;1,55
715,14;1,87
713,21;2,14
711,28;2,37
709,35;2,56
707,42;2,72
705,49;2,83
703,56;2,90
701,63;2,93
699,70;2,93
697,77;2,97
695,84;3,07
693,91;3,18
691,98;3,25
690,05;3,31
688,12;3,36
686,19;3,41
684,26;3,44
682,33;3,46
680,40;3,47
678,47;3,47
676,54;3,46
674,61;3,47
672,68;3,48
670,75;3,49
668,82;3,49
666,89;3,52
664,96;3,53
663,03;3,54
661,10;3,55
659,17;3,57
657,24;3,60
655,31;3,63
653,38;3,66
651,45;3,69
649,52;3,73
647,59;3,76
645,66;3,80
643,73;3,84
641,80;3,88
639,87;3,90
637,94;3,93
636,01;3,96
634,08;4,00
632,15;4,03
630,22;4,06
628,29;4,09
626,36;4,12
624,43;4,15
622,50;4,19
620,57;4,22
618,64;4,25
616,71;4,28
614,78;4,31
612,85;4,34
610,92;4,37
608,99;4,40
607,06;4,42
605,13;4,44
603,20;4,47
601,27;4,51
599,34;4,57
597,41;4,64
595,48;4,70
593,55;4,77
591,62;4,82
589,69;4,88
587,76;4,93
585,83;4,99
583,90;5,05
581,97;5,11
580,04;5,16
578,11;5,22
576,18;5,27
574,25;5,33
572,32;5,39
570,39;5,45
568,46;5,51
566,53;5,56
564,60;5,62
562,67;5,69
560,74;5,76
558,81;5,84
556,88;5,90
554,95;5,97
553,02;6,05
551,09;6,12
549,16;6,20
547,23;6,29
545,30;6,37
543,37;6,45
541,44;6,53
539,51;6,61
537,58;6,69
535,65;6,80
533,72;6,90
531,79;6,99
529,86;7,08
527,93;7,18
526,00;7,29
524,07;7,39
522,14;7,49
520,21;7,60
518,28;7,72
516,35;7,83
514,42;7,94
512,49;8,06
510,56;8,19
508,63;8,31
506,70;8,45
504,77;8,57
502,84;8,69
500,91;8,81
