Created as New Dataset;Amostra 403 por Laboratório data segunda-feira, setembro 23 2024
cm-1;%T
4000,00;9,82
3998,07;9,84
3996,14;9,85
3994,21;9,87
3992,28;9,88
3990,35;9,91
3988,42;9,93
3986,49;9,95
3984,56;9,97
3982,63;10,00
3980,70;10,02
3978,77;10,04
3976,84;10,06
3974,91;10,07
3972,98;10,08
3971,05;10,10
3969,12;10,11
3967,19;10,12
3965,26;10,13
3963,33;10,13
3961,40;10,14
3959,47;10,15
3957,54;10,15
3955,61;10,16
3953,68;10,16
3951,75;10,17
3949,82;10,17
3947,89;10,18
3945,96;10,18
3944,03;10,19
3942,10;10,19
3940,17;10,19
3938,24;10,19
3936,31;10,19
3934,38;10,19
3932,45;10,19
3930,52;10,20
3928,59;10,20
3926,66;10,20
3924,73;10,20
3922,80;10,20
3920,87;10,20
3918,94;10,20
3917,01;10,20
3915,08;10,20
3913,15;10,20
3911,22;10,20
3909,29;10,20
3907,36;10,19
3905,43;10,20
3903,50;10,20
3901,57;10,21
3899,64;10,21
3897,71;10,21
3895,78;10,21
3893,85;10,20
3891,92;10,20
3889,99;10,20
3888,06;10,20
3886,13;10,20
3884,20;10,20
3882,27;10,20
3880,34;10,20
3878,41;10,19
3876,48;10,19
3874,55;10,19
3872,62;10,18
3870,69;10,19
3868,76;10,18
3866,83;10,18
3864,90;10,18
3862,97;10,17
3861,04;10,17
3859,11;10,16
3857,18;10,14
3855,25;10,12
3853,32;10,12
3851,39;10,13
3849,46;10,12
3847,53;10,11
3845,60;10,10
3843,67;10,09
3841,74;10,08
3839,81;10,07
3837,88;10,06
3835,95;10,05
3834,02;10,04
3832,09;10,03
3830,16;10,01
3828,23;10,00
3826,30;9,98
3824,37;9,96
3822,44;9,95
3820,51;9,94
3818,58;9,93
3816,65;9,92
3814,72;9,90
3812,79;9,89
3810,86;9,87
3808,93;9,86
3807,00;9,85
3805,07;9,83
3803,14;9,82
3801,21;9,81
3799,28;9,79
3797,35;9,77
3795,42;9,75
3793,49;9,73
3791,56;9,71
3789,63;9,68
3787,70;9,66
3785,77;9,64
3783,84;9,62
3781,91;9,60
3779,98;9,57
3778,05;9,55
3776,12;9,53
3774,19;9,50
3772,26;9,48
3770,33;9,45
3768,40;9,42
3766,47;9,39
3764,54;9,36
3762,61;9,33
3760,68;9,30
3758,75;9,26
3756,82;9,23
3754,89;9,19
3752,96;9,16
3751,03;9,12
3749,10;9,08
3747,17;9,04
3745,24;9,00
3743,31;8,95
3741,38;8,90
3739,45;8,85
3737,52;8,80
3735,59;8,74
3733,66;8,68
3731,73;8,62
3729,80;8,55
3727,87;8,48
3725,94;8,41
3724,01;8,33
3722,08;8,25
3720,15;8,17
3718,22;8,08
3716,29;7,99
3714,36;7,89
3712,43;7,79
3710,50;7,68
3708,57;7,56
3706,64;7,43
3704,71;7,30
3702,78;7,17
3700,85;7,02
3698,92;6,87
3696,99;6,71
3695,06;6,54
3693,13;6,38
3691,20;6,20
3689,27;6,01
3687,34;5,81
3685,41;5,62
3683,48;5,43
3681,55;5,23
3679,62;5,04
3677,69;4,84
3675,76;4,62
3673,83;4,42
3671,90;4,22
3669,97;4,00
3668,04;3,80
3666,11;3,61
3664,18;3,42
3662,25;3,24
3660,32;3,07
3658,39;2,91
3656,46;2,75
3654,53;2,61
3652,60;2,47
3650,67;2,33
3648,74;2,21
3646,81;2,09
3644,88;1,98
3642,95;1,88
3641,02;1,78
3639,09;1,69
3637,16;1,61
3635,23;1,53
3633,30;1,46
3631,37;1,40
3629,44;1,34
3627,51;1,29
3625,58;1,23
3623,65;1,17
3621,72;1,11
3619,79;1,07
3617,86;1,03
3615,93;0,99
3614,00;0,95
3612,07;0,91
3610,14;0,88
3608,21;0,84
3606,28;0,81
3604,35;0,78
3602,42;0,75
3600,49;0,72
3598,56;0,70
3596,63;0,68
3594,70;0,66
3592,77;0,63
3590,84;0,61
3588,91;0,59
3586,98;0,57
3585,05;0,55
3583,12;0,54
3581,19;0,52
3579,26;0,51
3577,33;0,50
3575,40;0,48
3573,47;0,47
3571,54;0,45
3569,61;0,44
3567,68;0,43
3565,75;0,43
3563,82;0,42
3561,89;0,40
3559,96;0,39
3558,03;0,38
3556,10;0,38
3554,17;0,37
3552,24;0,36
3550,31;0,36
3548,38;0,35
3546,45;0,34
3544,52;0,33
3542,59;0,33
3540,66;0,33
3538,73;0,32
3536,80;0,32
3534,87;0,31
3532,94;0,31
3531,01;0,31
3529,08;0,31
3527,15;0,30
3525,22;0,29
3523,29;0,29
3521,36;0,29
3519,43;0,29
3517,50;0,28
3515,57;0,28
3513,64;0,27
3511,71;0,27
3509,78;0,27
3507,85;0,27
3505,92;0,26
3503,99;0,26
3502,06;0,25
3500,13;0,25
3498,20;0,25
3496,27;0,25
3494,34;0,25
3492,41;0,25
3490,48;0,25
3488,55;0,25
3486,62;0,24
3484,69;0,24
3482,76;0,24
3480,83;0,24
3478,90;0,24
3476,97;0,24
3475,04;0,24
3473,11;0,24
3471,18;0,23
3469,25;0,23
3467,32;0,23
3465,39;0,23
3463,46;0,23
3461,53;0,23
3459,60;0,23
3457,67;0,23
3455,74;0,23
3453,81;0,23
3451,88;0,23
3449,95;0,23
3448,02;0,23
3446,09;0,23
3444,16;0,23
3442,23;0,23
3440,30;0,23
3438,37;0,23
3436,44;0,22
3434,51;0,22
3432,58;0,22
3430,65;0,22
3428,72;0,22
3426,79;0,23
3424,86;0,23
3422,93;0,22
3421,00;0,22
3419,07;0,23
3417,14;0,22
3415,21;0,22
3413,28;0,22
3411,35;0,22
3409,42;0,22
3407,49;0,22
3405,56;0,22
3403,63;0,22
3401,70;0,22
3399,77;0,22
3397,84;0,22
3395,91;0,22
3393,98;0,22
3392,05;0,22
3390,12;0,22
3388,19;0,23
3386,26;0,23
3384,33;0,23
3382,40;0,23
3380,47;0,23
3378,54;0,23
3376,61;0,23
3374,68;0,23
3372,75;0,23
3370,82;0,23
3368,89;0,23
3366,96;0,23
3365,03;0,23
3363,10;0,23
3361,17;0,23
3359,24;0,23
3357,31;0,23
3355,38;0,23
3353,45;0,23
3351,52;0,23
3349,59;0,23
3347,66;0,24
3345,73;0,24
3343,80;0,24
3341,87;0,24
3339,94;0,24
3338,01;0,24
3336,08;0,24
3334,15;0,24
3332,22;0,25
3330,29;0,25
3328,36;0,25
3326,43;0,25
3324,50;0,25
3322,57;0,25
3320,64;0,25
3318,71;0,25
3316,78;0,25
3314,85;0,25
3312,92;0,25
3310,99;0,25
3309,06;0,25
3307,13;0,26
3305,20;0,26
3303,27;0,26
3301,34;0,26
3299,41;0,26
3297,48;0,26
3295,55;0,26
3293,62;0,27
3291,69;0,27
3289,76;0,27
3287,83;0,27
3285,90;0,27
3283,97;0,27
3282,04;0,28
3280,11;0,28
3278,18;0,28
3276,25;0,28
3274,32;0,28
3272,39;0,28
3270,46;0,28
3268,53;0,28
3266,60;0,28
3264,67;0,29
3262,74;0,29
3260,81;0,29
3258,88;0,29
3256,95;0,29
3255,02;0,30
3253,09;0,30
3251,16;0,30
3249,23;0,30
3247,30;0,31
3245,37;0,31
3243,44;0,31
3241,51;0,32
3239,58;0,32
3237,65;0,32
3235,72;0,33
3233,79;0,33
3231,86;0,34
3229,93;0,34
3228,00;0,35
3226,07;0,35
3224,14;0,35
3222,21;0,36
3220,28;0,36
3218,35;0,37
3216,42;0,37
3214,49;0,38
3212,56;0,39
3210,63;0,40
3208,70;0,40
3206,77;0,41
3204,84;0,42
3202,91;0,43
3200,98;0,44
3199,05;0,45
3197,12;0,46
3195,19;0,47
3193,26;0,49
3191,33;0,50
3189,40;0,51
3187,47;0,53
3185,54;0,54
3183,61;0,56
3181,68;0,57
3179,75;0,59
3177,82;0,61
3175,89;0,63
3173,96;0,65
3172,03;0,67
3170,10;0,69
3168,17;0,71
3166,24;0,74
3164,31;0,76
3162,38;0,79
3160,45;0,82
3158,52;0,85
3156,59;0,88
3154,66;0,91
3152,73;0,94
3150,80;0,98
3148,87;1,02
3146,94;1,06
3145,01;1,10
3143,08;1,14
3141,15;1,18
3139,22;1,23
3137,29;1,28
3135,36;1,32
3133,43;1,37
3131,50;1,42
3129,57;1,47
3127,64;1,53
3125,71;1,58
3123,78;1,63
3121,85;1,69
3119,92;1,74
3117,99;1,80
3116,06;1,87
3114,13;1,93
3112,20;1,99
3110,27;2,06
3108,34;2,12
3106,41;2,19
3104,48;2,26
3102,55;2,33
3100,62;2,39
3098,69;2,46
3096,76;2,53
3094,83;2,60
3092,90;2,67
3090,97;2,73
3089,04;2,80
3087,11;2,86
3085,18;2,92
3083,25;2,98
3081,32;3,04
3079,39;3,10
3077,46;3,16
3075,53;3,22
3073,60;3,27
3071,67;3,32
3069,74;3,37
3067,81;3,42
3065,88;3,47
3063,95;3,51
3062,02;3,56
3060,09;3,61
3058,16;3,65
3056,23;3,70
3054,30;3,74
3052,37;3,79
3050,44;3,83
3048,51;3,86
3046,58;3,89
3044,65;3,91
3042,72;3,93
3040,79;3,95
3038,86;3,95
3036,93;3,95
3035,00;3,94
3033,07;3,91
3031,14;3,87
3029,21;3,82
3027,28;3,77
3025,35;3,71
3023,42;3,64
3021,49;3,56
3019,56;3,46
3017,63;3,36
3015,70;3,24
3013,77;3,10
3011,84;2,95
3009,91;2,79
3007,98;2,62
3006,05;2,42
3004,12;2,22
3002,19;2,02
3000,26;1,81
2998,33;1,60
2996,40;1,39
2994,47;1,20
2992,54;1,03
2990,61;0,87
2988,68;0,73
2986,75;0,61
2984,82;0,50
2982,89;0,42
2980,96;0,35
2979,03;0,30
2977,10;0,27
2975,17;0,25
2973,24;0,23
2971,31;0,22
2969,38;0,20
2967,45;0,19
2965,52;0,18
2963,59;0,17
2961,66;0,16
2959,73;0,15
2957,80;0,15
2955,87;0,15
2953,94;0,15
2952,01;0,15
2950,08;0,15
2948,15;0,16
2946,22;0,15
2944,29;0,15
2942,36;0,15
2940,43;0,14
2938,50;0,13
2936,57;0,11
2934,64;0,10
2932,71;0,09
2930,78;0,08
2928,85;0,08
2926,92;0,07
2924,99;0,07
2923,06;0,07
2921,13;0,08
2919,20;0,08
2917,27;0,09
2915,34;0,10
2913,41;0,11
2911,48;0,12
2909,55;0,12
2907,62;0,13
2905,69;0,14
2903,76;0,14
2901,83;0,15
2899,90;0,15
2897,97;0,16
2896,04;0,17
2894,11;0,17
2892,18;0,18
2890,25;0,18
2888,32;0,19
2886,39;0,19
2884,46;0,20
2882,53;0,20
2880,60;0,20
2878,67;0,19
2876,74;0,19
2874,81;0,18
2872,88;0,18
2870,95;0,18
2869,02;0,18
2867,09;0,18
2865,16;0,17
2863,23;0,17
2861,30;0,16
2859,37;0,15
2857,44;0,14
2855,51;0,14
2853,58;0,14
2851,65;0,15
2849,72;0,16
2847,79;0,17
2845,86;0,19
2843,93;0,20
2842,00;0,22
2840,07;0,23
2838,14;0,25
2836,21;0,29
2834,28;0,35
2832,35;0,45
2830,42;0,60
2828,49;0,79
2826,56;1,01
2824,63;1,26
2822,70;1,53
2820,77;1,82
2818,84;2,12
2816,91;2,45
2814,98;2,78
2813,05;3,13
2811,12;3,49
2809,19;3,87
2807,26;4,26
2805,33;4,65
2803,40;5,05
2801,47;5,45
2799,54;5,84
2797,61;6,23
2795,68;6,63
2793,75;7,02
2791,82;7,41
2789,89;7,81
2787,96;8,22
2786,03;8,63
2784,10;9,04
2782,17;9,45
2780,24;9,85
2778,31;10,23
2776,38;10,60
2774,45;10,94
2772,52;11,25
2770,59;11,53
2768,66;11,79
2766,73;12,01
2764,80;12,20
2762,87;12,35
2760,94;12,48
2759,01;12,59
2757,08;12,69
2755,15;12,79
2753,22;12,87
2751,29;12,93
2749,36;12,96
2747,43;12,97
2745,50;12,95
2743,57;12,89
2741,64;12,80
2739,71;12,67
2737,78;12,50
2735,85;12,28
2733,92;12,05
2731,99;11,83
2730,06;11,69
2728,13;11,66
2726,20;11,73
2724,27;11,86
2722,34;12,02
2720,41;12,20
2718,48;12,40
2716,55;12,63
2714,62;12,90
2712,69;13,19
2710,76;13,45
2708,83;13,68
2706,90;13,87
2704,97;14,01
2703,04;14,12
2701,11;14,18
2699,18;14,21
2697,25;14,22
2695,32;14,19
2693,39;14,15
2691,46;14,09
2689,53;14,04
2687,60;14,00
2685,67;13,97
2683,74;13,97
2681,81;13,97
2679,88;13,99
2677,95;14,00
2676,02;14,02
2674,09;14,04
2672,16;14,07
2670,23;14,13
2668,30;14,22
2666,37;14,34
2664,44;14,49
2662,51;14,65
2660,58;14,82
2658,65;14,98
2656,72;15,15
2654,79;15,30
2652,86;15,44
2650,93;15,57
2649,00;15,69
2647,07;15,80
2645,14;15,90
2643,21;16,00
2641,28;16,09
2639,35;16,18
2637,42;16,27
2635,49;16,35
2633,56;16,43
2631,63;16,50
2629,70;16,57
2627,77;16,63
2625,84;16,70
2623,91;16,77
2621,98;16,84
2620,05;16,91
2618,12;16,98
2616,19;17,05
2614,26;17,12
2612,33;17,20
2610,40;17,28
2608,47;17,36
2606,54;17,45
2604,61;17,55
2602,68;17,65
2600,75;17,76
2598,82;17,87
2596,89;18,00
2594,96;18,13
2593,03;18,26
2591,10;18,40
2589,17;18,55
2587,24;18,70
2585,31;18,86
2583,38;19,02
2581,45;19,18
2579,52;19,35
2577,59;19,52
2575,66;19,68
2573,73;19,85
2571,80;20,02
2569,87;20,18
2567,94;20,33
2566,01;20,48
2564,08;20,62
2562,15;20,75
2560,22;20,87
2558,29;20,98
2556,36;21,09
2554,43;21,19
2552,50;21,28
2550,57;21,37
2548,64;21,45
2546,71;21,53
2544,78;21,60
2542,85;21,66
2540,92;21,73
2538,99;21,79
2537,06;21,85
2535,13;21,90
2533,20;21,96
2531,27;22,02
2529,34;22,09
2527,41;22,17
2525,48;22,25
2523,55;22,34
2521,62;22,42
2519,69;22,51
2517,76;22,59
2515,83;22,67
2513,90;22,74
2511,97;22,82
2510,04;22,89
2508,11;22,95
2506,18;23,02
2504,25;23,08
2502,32;23,13
2500,39;23,19
2498,46;23,24
2496,53;23,28
2494,60;23,33
2492,67;23,37
2490,74;23,40
2488,81;23,44
2486,88;23,47
2484,95;23,49
2483,02;23,51
2481,09;23,54
2479,16;23,56
2477,23;23,57
2475,30;23,59
2473,37;23,61
2471,44;23,62
2469,51;23,64
2467,58;23,65
2465,65;23,66
2463,72;23,66
2461,79;23,67
2459,86;23,67
2457,93;23,68
2456,00;23,67
2454,07;23,67
2452,14;23,67
2450,21;23,66
2448,28;23,65
2446,35;23,64
2444,42;23,63
2442,49;23,61
2440,56;23,59
2438,63;23,58
2436,70;23,56
2434,77;23,53
2432,84;23,51
2430,91;23,49
2428,98;23,47
2427,05;23,45
2425,12;23,42
2423,19;23,40
2421,26;23,38
2419,33;23,35
2417,40;23,32
2415,47;23,30
2413,54;23,28
2411,61;23,25
2409,68;23,23
2407,75;23,22
2405,82;23,20
2403,89;23,19
2401,96;23,18
2400,03;23,18
2398,10;23,17
2396,17;23,17
2394,24;23,17
2392,31;23,17
2390,38;23,17
2388,45;23,17
2386,52;23,16
2384,59;23,15
2382,66;23,12
2380,73;23,09
2378,80;23,06
2376,87;23,02
2374,94;22,99
2373,01;22,99
2371,08;23,00
2369,15;23,01
2367,22;23,00
2365,29;22,98
2363,36;22,95
2361,43;22,90
2359,50;22,84
2357,57;22,78
2355,64;22,71
2353,71;22,65
2351,78;22,60
2349,85;22,52
2347,92;22,53
2345,99;22,64
2344,06;22,66
2342,13;22,63
2340,20;22,61
2338,27;22,59
2336,34;22,56
2334,41;22,55
2332,48;22,58
2330,55;22,62
2328,62;22,63
2326,69;22,62
2324,76;22,61
2322,83;22,59
2320,90;22,58
2318,97;22,58
2317,04;22,59
2315,11;22,61
2313,18;22,63
2311,25;22,65
2309,32;22,68
2307,39;22,70
2305,46;22,72
2303,53;22,75
2301,60;22,76
2299,67;22,78
2297,74;22,79
2295,81;22,80
2293,88;22,81
2291,95;22,81
2290,02;22,82
2288,09;22,82
2286,16;22,83
2284,23;22,83
2282,30;22,83
2280,37;22,84
2278,44;22,85
2276,51;22,86
2274,58;22,87
2272,65;22,87
2270,72;22,88
2268,79;22,88
2266,86;22,88
2264,93;22,88
2263,00;22,88
2261,07;22,89
2259,14;22,89
2257,21;22,89
2255,28;22,89
2253,35;22,88
2251,42;22,88
2249,49;22,88
2247,56;22,87
2245,63;22,86
2243,70;22,85
2241,77;22,84
2239,84;22,83
2237,91;22,82
2235,98;22,80
2234,05;22,79
2232,12;22,77
2230,19;22,75
2228,26;22,73
2226,33;22,71
2224,40;22,69
2222,47;22,68
2220,54;22,66
2218,61;22,64
2216,68;22,62
2214,75;22,60
2212,82;22,58
2210,89;22,55
2208,96;22,53
2207,03;22,51
2205,10;22,49
2203,17;22,47
2201,24;22,45
2199,31;22,42
2197,38;22,40
2195,45;22,37
2193,52;22,35
2191,59;22,32
2189,66;22,30
2187,73;22,27
2185,80;22,25
2183,87;22,23
2181,94;22,22
2180,01;22,21
2178,08;22,20
2176,15;22,19
2174,22;22,20
2172,29;22,20
2170,36;22,20
2168,43;22,20
2166,50;22,20
2164,57;22,19
2162,64;22,19
2160,71;22,19
2158,78;22,19
2156,85;22,20
2154,92;22,20
2152,99;22,21
2151,06;22,22
2149,13;22,25
2147,20;22,28
2145,27;22,32
2143,34;22,36
2141,41;22,41
2139,48;22,45
2137,55;22,49
2135,62;22,53
2133,69;22,56
2131,76;22,59
2129,83;22,62
2127,90;22,65
2125,97;22,68
2124,04;22,71
2122,11;22,74
2120,18;22,77
2118,25;22,80
2116,32;22,83
2114,39;22,87
2112,46;22,90
2110,53;22,94
2108,60;22,98
2106,67;23,01
2104,74;23,05
2102,81;23,09
2100,88;23,13
2098,95;23,17
2097,02;23,21
2095,09;23,25
2093,16;23,29
2091,23;23,33
2089,30;23,37
2087,37;23,41
2085,44;23,46
2083,51;23,50
2081,58;23,55
2079,65;23,59
2077,72;23,63
2075,79;23,68
2073,86;23,72
2071,93;23,77
2070,00;23,81
2068,07;23,86
2066,14;23,90
2064,21;23,95
2062,28;23,99
2060,35;24,03
2058,42;24,07
2056,49;24,10
2054,56;24,14
2052,63;24,17
2050,70;24,21
2048,77;24,24
2046,84;24,28
2044,91;24,31
2042,98;24,35
2041,05;24,39
2039,12;24,43
2037,19;24,48
2035,26;24,53
2033,33;24,58
2031,40;24,64
2029,47;24,71
2027,54;24,78
2025,61;24,87
2023,68;24,96
2021,75;25,07
2019,82;25,19
2017,89;25,33
2015,96;25,47
2014,03;25,61
2012,10;25,74
2010,17;25,87
2008,24;25,98
2006,31;26,09
2004,38;26,18
2002,45;26,27
2000,52;26,36
1998,59;26,43
1996,66;26,50
1994,73;26,57
1992,80;26,65
1990,87;26,72
1988,94;26,79
1987,01;26,84
1985,08;26,90
1983,15;26,95
1981,22;27,01
1979,29;27,06
1977,36;27,11
1975,43;27,16
1973,50;27,21
1971,57;27,25
1969,64;27,31
1967,71;27,36
1965,78;27,41
1963,85;27,44
1961,92;27,48
1959,99;27,51
1958,06;27,54
1956,13;27,57
1954,20;27,60
1952,27;27,63
1950,34;27,67
1948,41;27,69
1946,48;27,71
1944,55;27,74
1942,62;27,76
1940,69;27,78
1938,76;27,79
1936,83;27,81
1934,90;27,86
1932,97;27,91
1931,04;27,95
1929,11;27,99
1927,18;28,02
1925,25;28,08
1923,32;28,11
1921,39;28,13
1919,46;28,14
1917,53;28,19
1915,60;28,21
1913,67;28,22
1911,74;28,24
1909,81;28,28
1907,88;28,31
1905,95;28,33
1904,02;28,33
1902,09;28,35
1900,16;28,35
1898,23;28,37
1896,30;28,39
1894,37;28,40
1892,44;28,40
1890,51;28,43
1888,58;28,46
1886,65;28,48
1884,72;28,48
1882,79;28,49
1880,86;28,50
1878,93;28,52
1877,00;28,54
1875,07;28,54
1873,14;28,54
1871,21;28,56
1869,28;28,65
1867,35;28,71
1865,42;28,71
1863,49;28,69
1861,56;28,69
1859,63;28,69
1857,70;28,70
1855,77;28,70
1853,84;28,69
1851,91;28,67
1849,98;28,65
1848,05;28,60
1846,12;28,59
1844,19;28,63
1842,26;28,67
1840,33;28,63
1838,40;28,59
1836,47;28,56
1834,54;28,49
1832,61;28,44
1830,68;28,43
1828,75;28,41
1826,82;28,36
1824,89;28,33
1822,96;28,28
1821,03;28,20
1819,10;28,11
1817,17;28,04
1815,24;27,94
1813,31;27,86
1811,38;27,77
1809,45;27,68
1807,52;27,53
1805,59;27,35
1803,66;27,16
1801,73;27,01
1799,80;26,86
1797,87;26,67
1795,94;26,44
1794,01;26,25
1792,08;26,11
1790,15;25,94
1788,22;25,68
1786,29;25,43
1784,36;25,18
1782,43;24,93
1780,50;24,65
1778,57;24,35
1776,64;24,03
1774,71;23,75
1772,78;23,52
1770,85;23,31
1768,92;23,09
1766,99;22,79
1765,06;22,46
1763,13;22,08
1761,20;21,64
1759,27;21,06
1757,34;20,30
1755,41;19,24
1753,48;17,98
1751,55;16,44
1749,62;14,90
1747,69;13,77
1745,76;13,25
1743,83;13,22
1741,90;13,47
1739,97;13,71
1738,04;13,82
1736,11;13,80
1734,18;13,77
1732,25;13,69
1730,32;13,58
1728,39;13,44
1726,46;13,30
1724,53;13,14
1722,60;12,91
1720,67;12,65
1718,74;12,33
1716,81;11,93
1714,88;11,44
1712,95;10,92
1711,02;10,41
1709,09;9,95
1707,16;9,56
1705,23;9,21
1703,30;8,90
1701,37;8,68
1699,44;8,52
1697,51;8,38
1695,58;8,18
1693,65;7,98
1691,72;7,77
1689,79;7,52
1687,86;7,25
1685,93;6,99
1684,00;6,71
1682,07;6,44
1680,14;6,14
1678,21;5,83
1676,28;5,55
1674,35;5,28
1672,42;5,03
1670,49;4,80
1668,56;4,58
1666,63;4,38
1664,70;4,19
1662,77;4,03
1660,84;3,88
1658,91;3,73
1656,98;3,60
1655,05;3,49
1653,12;3,44
1651,19;3,37
1649,26;3,33
1647,33;3,29
1645,40;3,28
1643,47;3,26
1641,54;3,26
1639,61;3,26
1637,68;3,28
1635,75;3,32
1633,82;3,35
1631,89;3,39
1629,96;3,53
1628,03;3,78
1626,10;4,08
1624,17;4,39
1622,24;4,71
1620,31;4,97
1618,38;5,22
1616,45;5,55
1614,52;5,87
1612,59;6,12
1610,66;6,37
1608,73;6,63
1606,80;6,93
1604,87;7,26
1602,94;7,62
1601,01;7,99
1599,08;8,39
1597,15;8,80
1595,22;9,23
1593,29;9,62
1591,36;9,99
1589,43;10,36
1587,50;10,71
1585,57;11,04
1583,64;11,37
1581,71;11,66
1579,78;11,93
1577,85;12,20
1575,92;12,55
1573,99;12,85
1572,06;13,04
1570,13;13,29
1568,20;13,57
1566,27;13,78
1564,34;13,94
1562,41;14,03
1560,48;14,17
1558,55;14,58
1556,62;14,85
1554,69;15,01
1552,76;15,18
1550,83;15,37
1548,90;15,53
1546,97;15,65
1545,04;15,77
1543,11;15,89
1541,18;16,10
1539,25;16,32
1537,32;16,37
1535,39;16,37
1533,46;16,42
1531,53;16,40
1529,60;16,29
1527,67;16,15
1525,74;15,98
1523,81;15,77
1521,88;15,47
1519,95;15,04
1518,02;14,60
1516,09;14,18
1514,16;13,92
1512,23;13,81
1510,30;13,75
1508,37;13,70
1506,44;13,64
1504,51;13,50
1502,58;13,28
1500,65;12,97
1498,72;12,59
1496,79;12,07
1494,86;11,39
1492,93;10,67
1491,00;9,88
1489,07;8,99
1487,14;8,11
1485,21;7,27
1483,28;6,39
1481,35;5,41
1479,42;4,35
1477,49;3,28
1475,56;2,25
1473,63;1,36
1471,70;0,68
1469,77;0,36
1467,84;0,26
1465,91;0,23
1463,98;0,23
1462,05;0,23
1460,12;0,22
1458,19;0,22
1456,26;0,23
1454,33;0,25
1452,40;0,26
1450,47;0,30
1448,54;0,34
1446,61;0,42
1444,68;0,52
1442,75;0,68
1440,82;0,87
1438,89;1,11
1436,96;1,49
1435,03;2,07
1433,10;2,77
1431,17;3,68
1429,24;4,71
1427,31;5,63
1425,38;6,37
1423,45;6,97
1421,52;7,39
1419,59;7,79
1417,66;8,15
1415,73;8,39
1413,80;8,55
1411,87;8,66
1409,94;8,71
1408,01;8,73
1406,08;8,71
1404,15;8,68
1402,22;8,60
1400,29;8,49
1398,36;8,28
1396,43;7,92
1394,50;7,33
1392,57;6,58
1390,64;5,78
1388,71;4,88
1386,78;3,77
1384,85;2,65
1382,92;1,72
1380,99;1,01
1379,06;0,58
1377,13;0,46
1375,20;0,62
1373,27;1,01
1371,34;1,42
1369,41;1,57
1367,48;1,51
1365,55;1,63
1363,62;2,22
1361,69;3,13
1359,76;3,90
1357,83;4,36
1355,90;4,57
1353,97;4,66
1352,04;4,82
1350,11;5,14
1348,18;5,61
1346,25;6,05
1344,32;6,35
1342,39;6,53
1340,46;6,75
1338,53;7,12
1336,60;7,58
1334,67;8,04
1332,74;8,47
1330,81;8,84
1328,88;9,15
1326,95;9,38
1325,02;9,54
1323,09;9,62
1321,16;9,61
1319,23;9,52
1317,30;9,37
1315,37;9,21
1313,44;9,04
1311,51;8,88
1309,58;8,73
1307,65;8,61
1305,72;8,52
1303,79;8,48
1301,86;8,50
1299,93;8,61
1298,00;8,79
1296,07;9,01
1294,14;9,24
1292,21;9,45
1290,28;9,63
1288,35;9,80
1286,42;9,94
1284,49;10,05
1282,56;10,14
1280,63;10,17
1278,70;10,17
1276,77;10,16
1274,84;10,19
1272,91;10,27
1270,98;10,38
1269,05;10,49
1267,12;10,58
1265,19;10,64
1263,26;10,67
1261,33;10,67
1259,40;10,67
1257,47;10,66
1255,54;10,63
1253,61;10,57
1251,68;10,51
1249,75;10,45
1247,82;10,43
1245,89;10,45
1243,96;10,51
1242,03;10,59
1240,10;10,62
1238,17;10,55
1236,24;10,38
1234,31;10,19
1232,38;10,09
1230,45;10,12
1228,52;10,27
1226,59;10,49
1224,66;10,72
1222,73;10,94
1220,80;11,15
1218,87;11,33
1216,94;11,48
1215,01;11,58
1213,08;11,63
1211,15;11,63
1209,22;11,56
1207,29;11,43
1205,36;11,24
1203,43;11,06
1201,50;10,97
1199,57;11,02
1197,64;11,12
1195,71;11,23
1193,78;11,30
1191,85;11,37
1189,92;11,42
1187,99;11,47
1186,06;11,46
1184,13;11,36
1182,20;11,18
1180,27;10,95
1178,34;10,70
1176,41;10,44
1174,48;10,12
1172,55;9,77
1170,62;9,47
1168,69;9,32
1166,76;9,30
1164,83;9,30
1162,90;9,24
1160,97;9,11
1159,04;8,96
1157,11;8,79
1155,18;8,66
1153,25;8,57
1151,32;8,51
1149,39;8,47
1147,46;8,42
1145,53;8,37
1143,60;8,33
1141,67;8,30
1139,74;8,29
1137,81;8,29
1135,88;8,30
1133,95;8,29
1132,02;8,27
1130,09;8,21
1128,16;8,11
1126,23;7,98
1124,30;7,84
1122,37;7,70
1120,44;7,61
1118,51;7,56
1116,58;7,54
1114,65;7,52
1112,72;7,49
1110,79;7,44
1108,86;7,37
1106,93;7,29
1105,00;7,18
1103,07;7,05
1101,14;6,91
1099,21;6,75
1097,28;6,58
1095,35;6,41
1093,42;6,25
1091,49;6,15
1089,56;6,09
1087,63;6,11
1085,70;6,21
1083,77;6,39
1081,84;6,60
1079,91;6,83
1077,98;7,05
1076,05;7,26
1074,12;7,46
1072,19;7,63
1070,26;7,78
1068,33;7,93
1066,40;8,11
1064,47;8,37
1062,54;8,72
1060,61;9,16
1058,68;9,65
1056,75;10,16
1054,82;10,65
1052,89;11,10
1050,96;11,52
1049,03;11,87
1047,10;12,15
1045,17;12,36
1043,24;12,50
1041,31;12,60
1039,38;12,67
1037,45;12,73
1035,52;12,80
1033,59;12,89
1031,66;12,99
1029,73;13,10
1027,80;13,21
1025,87;13,32
1023,94;13,44
1022,01;13,60
1020,08;13,82
1018,15;14,06
1016,22;14,30
1014,29;14,50
1012,36;14,67
1010,43;14,82
1008,50;14,98
1006,57;15,14
1004,64;15,26
1002,71;15,32
1000,78;15,35
998,85;15,36
996,92;15,37
994,99;15,39
993,06;15,41
991,13;15,41
989,20;15,38
987,27;15,33
985,34;15,26
983,41;15,18
981,48;15,09
979,55;14,99
977,62;14,88
975,69;14,75
973,76;14,62
971,83;14,47
969,90;14,32
967,97;14,20
966,04;14,11
964,11;14,10
962,18;14,15
960,25;14,20
958,32;14,20
956,39;14,13
954,46;14,01
952,53;13,86
950,60;13,72
948,67;13,57
946,74;13,41
944,81;13,27
942,88;13,17
940,95;13,11
939,02;13,05
937,09;13,00
935,16;12,97
933,23;12,98
931,30;13,02
929,37;13,07
927,44;13,10
925,51;13,09
923,58;13,04
921,65;12,95
919,72;12,87
917,79;12,88
915,86;13,00
913,93;13,13
912,00;13,19
910,07;13,18
908,14;13,11
906,21;13,02
904,28;12,89
902,35;12,69
900,42;12,41
898,49;12,04
896,56;11,62
894,63;11,17
892,70;10,75
890,77;10,40
888,84;10,16
886,91;10,07
884,98;10,05
883,05;10,05
881,12;10,04
879,19;10,02
877,26;9,99
875,33;9,93
873,40;9,83
871,47;9,71
869,54;9,57
867,61;9,42
865,68;9,26
863,75;9,09
861,82;8,91
859,89;8,73
857,96;8,52
856,03;8,30
854,10;8,08
852,17;7,86
850,24;7,66
848,31;7,49
846,38;7,35
844,45;7,24
842,52;7,14
840,59;7,07
838,66;6,98
836,73;6,86
834,80;6,72
832,87;6,59
830,94;6,49
829,01;6,40
827,08;6,30
825,15;6,17
823,22;6,03
821,29;5,88
819,36;5,73
817,43;5,59
815,50;5,48
813,57;5,39
811,64;5,32
809,71;5,24
807,78;5,14
805,85;5,05
803,92;5,02
801,99;5,03
800,06;5,02
798,13;4,97
796,20;4,88
794,27;4,78
792,34;4,69
790,41;4,59
788,48;4,47
786,55;4,33
784,62;4,17
782,69;3,99
780,76;3,85
778,83;3,73
776,90;3,61
774,97;3,50
773,04;3,38
771,11;3,27
769,18;3,17
767,25;3,09
765,32;3,06
763,39;3,05
761,46;3,03
759,53;2,97
757,60;2,91
755,67;2,83
753,74;2,75
751,81;2,68
749,88;2,61
747,95;2,55
746,02;2,46
744,09;2,35
742,16;2,24
740,23;2,16
738,30;2,10
736,37;2,05
734,44;1,99
732,51;1,89
730,58;1,75
728,65;1,58
726,72;1,40
724,79;1,24
722,86;1,14
720,93;1,14
719,00;1,30
717,07;1,56
715,14;1,82
713,21;2,05
711,28;2,24
709,35;2,41
707,42;2,55
705,49;2,64
703,56;2,70
701,63;2,73
699,70;2,74
697,77;2,78
695,84;2,86
693,91;2,95
691,98;3,02
690,05;3,08
688,12;3,12
686,19;3,15
684,26;3,18
682,33;3,19
680,40;3,20
678,47;3,20
676,54;3,19
674,61;3,19
672,68;3,19
670,75;3,20
668,82;3,21
666,89;3,21
664,96;3,21
663,03;3,21
661,10;3,22
659,17;3,24
657,24;3,26
655,31;3,29
653,38;3,32
651,45;3,35
649,52;3,38
647,59;3,41
645,66;3,44
643,73;3,48
641,80;3,51
639,87;3,53
637,94;3,56
636,01;3,59
634,08;3,61
632,15;3,63
630,22;3,65
628,29;3,66
626,36;3,68
624,43;3,71
622,50;3,73
620,57;3,76
618,64;3,78
616,71;3,79
614,78;3,82
612,85;3,84
610,92;3,87
608,99;3,90
607,06;3,92
605,13;3,93
603,20;3,95
601,27;3,98
599,34;4,03
597,41;4,09
595,48;4,15
593,55;4,20
591,62;4,25
589,69;4,29
587,76;4,33
585,83;4,38
583,90;4,43
581,97;4,47
580,04;4,52
578,11;4,55
576,18;4,59
574,25;4,63
572,32;4,67
570,39;4,72
568,46;4,76
566,53;4,80
564,60;4,84
562,67;4,89
560,74;4,94
558,81;5,01
556,88;5,07
554,95;5,13
553,02;5,19
551,09;5,26
549,16;5,33
547,23;5,40
545,30;5,47
543,37;5,54
541,44;5,61
539,51;5,66
537,58;5,73
535,65;5,81
533,72;5,89
531,79;5,95
529,86;6,02
527,93;6,09
526,00;6,17
524,07;6,25
522,14;6,34
520,21;6,41
518,28;6,49
516,35;6,58
514,42;6,68
512,49;6,78
510,56;6,88
508,63;6,98
506,70;7,08
504,77;7,18
502,84;7,30
500,91;7,41
