Created as New Dataset;Amostra 401 por Laboratório data terça-feira, setembro 24 2024
cm-1;%T
4000,00;15,28
3998,07;15,31
3996,14;15,35
3994,21;15,38
3992,28;15,43
3990,35;15,47
3988,42;15,52
3986,49;15,56
3984,56;15,61
3982,63;15,66
3980,70;15,70
3978,77;15,75
3976,84;15,78
3974,91;15,82
3972,98;15,85
3971,05;15,88
3969,12;15,91
3967,19;15,94
3965,26;15,97
3963,33;15,99
3961,40;16,01
3959,47;16,03
3957,54;16,05
3955,61;16,07
3953,68;16,09
3951,75;16,11
3949,82;16,12
3947,89;16,14
3945,96;16,15
3944,03;16,17
3942,10;16,18
3940,17;16,20
3938,24;16,21
3936,31;16,22
3934,38;16,23
3932,45;16,24
3930,52;16,25
3928,59;16,27
3926,66;16,28
3924,73;16,29
3922,80;16,30
3920,87;16,31
3918,94;16,32
3917,01;16,33
3915,08;16,34
3913,15;16,35
3911,22;16,36
3909,29;16,37
3907,36;16,38
3905,43;16,39
3903,50;16,40
3901,57;16,40
3899,64;16,42
3897,71;16,43
3895,78;16,44
3893,85;16,45
3891,92;16,46
3889,99;16,47
3888,06;16,47
3886,13;16,48
3884,20;16,48
3882,27;16,49
3880,34;16,50
3878,41;16,50
3876,48;16,51
3874,55;16,52
3872,62;16,52
3870,69;16,52
3868,76;16,53
3866,83;16,54
3864,90;16,54
3862,97;16,55
3861,04;16,55
3859,11;16,55
3857,18;16,54
3855,25;16,55
3853,32;16,55
3851,39;16,55
3849,46;16,55
3847,53;16,55
3845,60;16,55
3843,67;16,54
3841,74;16,53
3839,81;16,53
3837,88;16,53
3835,95;16,53
3834,02;16,53
3832,09;16,53
3830,16;16,53
3828,23;16,52
3826,30;16,51
3824,37;16,50
3822,44;16,49
3820,51;16,49
3818,58;16,49
3816,65;16,50
3814,72;16,50
3812,79;16,50
3810,86;16,50
3808,93;16,49
3807,00;16,49
3805,07;16,49
3803,14;16,49
3801,21;16,49
3799,28;16,49
3797,35;16,49
3795,42;16,48
3793,49;16,47
3791,56;16,46
3789,63;16,45
3787,70;16,43
3785,77;16,42
3783,84;16,41
3781,91;16,40
3779,98;16,40
3778,05;16,39
3776,12;16,38
3774,19;16,37
3772,26;16,36
3770,33;16,35
3768,40;16,33
3766,47;16,32
3764,54;16,30
3762,61;16,28
3760,68;16,26
3758,75;16,24
3756,82;16,22
3754,89;16,19
3752,96;16,17
3751,03;16,15
3749,10;16,13
3747,17;16,11
3745,24;16,08
3743,31;16,05
3741,38;16,02
3739,45;15,98
3737,52;15,95
3735,59;15,91
3733,66;15,88
3731,73;15,85
3729,80;15,82
3727,87;15,77
3725,94;15,72
3724,01;15,67
3722,08;15,63
3720,15;15,58
3718,22;15,53
3716,29;15,47
3714,36;15,40
3712,43;15,33
3710,50;15,25
3708,57;15,17
3706,64;15,08
3704,71;14,99
3702,78;14,88
3700,85;14,77
3698,92;14,65
3696,99;14,52
3695,06;14,38
3693,13;14,23
3691,20;14,08
3689,27;13,91
3687,34;13,75
3685,41;13,57
3683,48;13,40
3681,55;13,22
3679,62;13,04
3677,69;12,85
3675,76;12,64
3673,83;12,45
3671,90;12,25
3669,97;12,04
3668,04;11,83
3666,11;11,61
3664,18;11,38
3662,25;11,15
3660,32;10,92
3658,39;10,68
3656,46;10,43
3654,53;10,17
3652,60;9,92
3650,67;9,66
3648,74;9,42
3646,81;9,20
3644,88;8,99
3642,95;8,78
3641,02;8,59
3639,09;8,39
3637,16;8,20
3635,23;8,01
3633,30;7,84
3631,37;7,66
3629,44;7,48
3627,51;7,31
3625,58;7,13
3623,65;6,95
3621,72;6,77
3619,79;6,60
3617,86;6,42
3615,93;6,25
3614,00;6,08
3612,07;5,92
3610,14;5,76
3608,21;5,60
3606,28;5,46
3604,35;5,32
3602,42;5,18
3600,49;5,06
3598,56;4,93
3596,63;4,82
3594,70;4,70
3592,77;4,58
3590,84;4,46
3588,91;4,34
3586,98;4,22
3585,05;4,11
3583,12;4,00
3581,19;3,89
3579,26;3,79
3577,33;3,68
3575,40;3,58
3573,47;3,48
3571,54;3,39
3569,61;3,29
3567,68;3,21
3565,75;3,12
3563,82;3,04
3561,89;2,96
3559,96;2,88
3558,03;2,81
3556,10;2,74
3554,17;2,67
3552,24;2,61
3550,31;2,55
3548,38;2,48
3546,45;2,42
3544,52;2,37
3542,59;2,32
3540,66;2,27
3538,73;2,23
3536,80;2,18
3534,87;2,14
3532,94;2,10
3531,01;2,06
3529,08;2,03
3527,15;1,99
3525,22;1,96
3523,29;1,92
3521,36;1,90
3519,43;1,87
3517,50;1,84
3515,57;1,81
3513,64;1,78
3511,71;1,76
3509,78;1,74
3507,85;1,72
3505,92;1,70
3503,99;1,67
3502,06;1,65
3500,13;1,64
3498,20;1,62
3496,27;1,60
3494,34;1,59
3492,41;1,57
3490,48;1,56
3488,55;1,54
3486,62;1,53
3484,69;1,52
3482,76;1,51
3480,83;1,50
3478,90;1,49
3476,97;1,48
3475,04;1,47
3473,11;1,45
3471,18;1,44
3469,25;1,43
3467,32;1,42
3465,39;1,42
3463,46;1,41
3461,53;1,40
3459,60;1,39
3457,67;1,39
3455,74;1,38
3453,81;1,38
3451,88;1,37
3449,95;1,36
3448,02;1,36
3446,09;1,35
3444,16;1,35
3442,23;1,35
3440,30;1,34
3438,37;1,33
3436,44;1,32
3434,51;1,32
3432,58;1,32
3430,65;1,32
3428,72;1,32
3426,79;1,33
3424,86;1,33
3422,93;1,33
3421,00;1,33
3419,07;1,33
3417,14;1,33
3415,21;1,34
3413,28;1,34
3411,35;1,34
3409,42;1,35
3407,49;1,35
3405,56;1,36
3403,63;1,36
3401,70;1,37
3399,77;1,38
3397,84;1,39
3395,91;1,40
3393,98;1,41
3392,05;1,42
3390,12;1,43
3388,19;1,45
3386,26;1,47
3384,33;1,48
3382,40;1,50
3380,47;1,51
3378,54;1,53
3376,61;1,55
3374,68;1,56
3372,75;1,58
3370,82;1,60
3368,89;1,61
3366,96;1,64
3365,03;1,67
3363,10;1,69
3361,17;1,71
3359,24;1,74
3357,31;1,76
3355,38;1,79
3353,45;1,81
3351,52;1,84
3349,59;1,86
3347,66;1,89
3345,73;1,92
3343,80;1,95
3341,87;1,98
3339,94;2,00
3338,01;2,03
3336,08;2,07
3334,15;2,10
3332,22;2,12
3330,29;2,15
3328,36;2,18
3326,43;2,21
3324,50;2,24
3322,57;2,27
3320,64;2,31
3318,71;2,34
3316,78;2,37
3314,85;2,40
3312,92;2,43
3310,99;2,45
3309,06;2,48
3307,13;2,51
3305,20;2,54
3303,27;2,57
3301,34;2,60
3299,41;2,63
3297,48;2,66
3295,55;2,69
3293,62;2,72
3291,69;2,75
3289,76;2,78
3287,83;2,81
3285,90;2,84
3283,97;2,88
3282,04;2,91
3280,11;2,94
3278,18;2,98
3276,25;3,01
3274,32;3,05
3272,39;3,09
3270,46;3,12
3268,53;3,17
3266,60;3,21
3264,67;3,25
3262,74;3,30
3260,81;3,35
3258,88;3,39
3256,95;3,44
3255,02;3,49
3253,09;3,55
3251,16;3,60
3249,23;3,66
3247,30;3,71
3245,37;3,77
3243,44;3,84
3241,51;3,90
3239,58;3,96
3237,65;4,03
3235,72;4,09
3233,79;4,16
3231,86;4,23
3229,93;4,30
3228,00;4,38
3226,07;4,45
3224,14;4,53
3222,21;4,60
3220,28;4,68
3218,35;4,76
3216,42;4,84
3214,49;4,92
3212,56;5,00
3210,63;5,09
3208,70;5,17
3206,77;5,25
3204,84;5,34
3202,91;5,43
3200,98;5,52
3199,05;5,60
3197,12;5,70
3195,19;5,79
3193,26;5,89
3191,33;5,99
3189,40;6,09
3187,47;6,20
3185,54;6,30
3183,61;6,41
3181,68;6,53
3179,75;6,64
3177,82;6,76
3175,89;6,89
3173,96;7,01
3172,03;7,14
3170,10;7,27
3168,17;7,40
3166,24;7,53
3164,31;7,67
3162,38;7,80
3160,45;7,94
3158,52;8,08
3156,59;8,21
3154,66;8,35
3152,73;8,49
3150,80;8,63
3148,87;8,78
3146,94;8,92
3145,01;9,06
3143,08;9,20
3141,15;9,33
3139,22;9,47
3137,29;9,61
3135,36;9,75
3133,43;9,88
3131,50;10,01
3129,57;10,14
3127,64;10,27
3125,71;10,40
3123,78;10,52
3121,85;10,64
3119,92;10,75
3117,99;10,87
3116,06;10,98
3114,13;11,09
3112,20;11,19
3110,27;11,28
3108,34;11,37
3106,41;11,46
3104,48;11,54
3102,55;11,62
3100,62;11,70
3098,69;11,77
3096,76;11,83
3094,83;11,88
3092,90;11,92
3090,97;11,94
3089,04;11,96
3087,11;11,97
3085,18;11,98
3083,25;11,99
3081,32;11,98
3079,39;11,97
3077,46;11,95
3075,53;11,91
3073,60;11,87
3071,67;11,82
3069,74;11,76
3067,81;11,70
3065,88;11,63
3063,95;11,57
3062,02;11,51
3060,09;11,45
3058,16;11,39
3056,23;11,32
3054,30;11,25
3052,37;11,17
3050,44;11,07
3048,51;10,97
3046,58;10,85
3044,65;10,72
3042,72;10,58
3040,79;10,43
3038,86;10,26
3036,93;10,06
3035,00;9,85
3033,07;9,61
3031,14;9,36
3029,21;9,09
3027,28;8,81
3025,35;8,52
3023,42;8,22
3021,49;7,90
3019,56;7,56
3017,63;7,19
3015,70;6,81
3013,77;6,41
3011,84;5,99
3009,91;5,55
3007,98;5,09
3006,05;4,61
3004,12;4,13
3002,19;3,66
3000,26;3,20
2998,33;2,77
2996,40;2,37
2994,47;2,01
2992,54;1,70
2990,61;1,43
2988,68;1,21
2986,75;1,02
2984,82;0,87
2982,89;0,75
2980,96;0,66
2979,03;0,60
2977,10;0,56
2975,17;0,53
2973,24;0,51
2971,31;0,49
2969,38;0,46
2967,45;0,43
2965,52;0,41
2963,59;0,39
2961,66;0,37
2959,73;0,35
2957,80;0,34
2955,87;0,34
2953,94;0,34
2952,01;0,34
2950,08;0,35
2948,15;0,35
2946,22;0,35
2944,29;0,34
2942,36;0,33
2940,43;0,31
2938,50;0,29
2936,57;0,27
2934,64;0,25
2932,71;0,23
2930,78;0,21
2928,85;0,19
2926,92;0,18
2924,99;0,18
2923,06;0,18
2921,13;0,19
2919,20;0,20
2917,27;0,22
2915,34;0,24
2913,41;0,25
2911,48;0,27
2909,55;0,28
2907,62;0,30
2905,69;0,31
2903,76;0,32
2901,83;0,33
2899,90;0,34
2897,97;0,34
2896,04;0,36
2894,11;0,37
2892,18;0,38
2890,25;0,39
2888,32;0,40
2886,39;0,41
2884,46;0,42
2882,53;0,42
2880,60;0,42
2878,67;0,42
2876,74;0,41
2874,81;0,40
2872,88;0,39
2870,95;0,39
2869,02;0,39
2867,09;0,39
2865,16;0,38
2863,23;0,37
2861,30;0,36
2859,37;0,34
2857,44;0,33
2855,51;0,32
2853,58;0,32
2851,65;0,33
2849,72;0,35
2847,79;0,38
2845,86;0,41
2843,93;0,43
2842,00;0,46
2840,07;0,49
2838,14;0,51
2836,21;0,54
2834,28;0,58
2832,35;0,64
2830,42;0,73
2828,49;0,85
2826,56;1,00
2824,63;1,17
2822,70;1,37
2820,77;1,59
2818,84;1,84
2816,91;2,11
2814,98;2,41
2813,05;2,74
2811,12;3,10
2809,19;3,49
2807,26;3,90
2805,33;4,32
2803,40;4,77
2801,47;5,21
2799,54;5,67
2797,61;6,12
2795,68;6,57
2793,75;7,03
2791,82;7,49
2789,89;7,96
2787,96;8,43
2786,03;8,91
2784,10;9,39
2782,17;9,88
2780,24;10,35
2778,31;10,81
2776,38;11,24
2774,45;11,65
2772,52;12,03
2770,59;12,37
2768,66;12,68
2766,73;12,95
2764,80;13,18
2762,87;13,36
2760,94;13,52
2759,01;13,65
2757,08;13,76
2755,15;13,87
2753,22;13,94
2751,29;13,99
2749,36;14,01
2747,43;14,00
2745,50;13,96
2743,57;13,89
2741,64;13,79
2739,71;13,64
2737,78;13,44
2735,85;13,21
2733,92;12,95
2731,99;12,70
2730,06;12,55
2728,13;12,51
2726,20;12,58
2724,27;12,72
2722,34;12,90
2720,41;13,12
2718,48;13,38
2716,55;13,69
2714,62;14,03
2712,69;14,38
2710,76;14,71
2708,83;15,00
2706,90;15,23
2704,97;15,42
2703,04;15,56
2701,11;15,67
2699,18;15,74
2697,25;15,77
2695,32;15,79
2693,39;15,78
2691,46;15,76
2689,53;15,75
2687,60;15,75
2685,67;15,76
2683,74;15,79
2681,81;15,83
2679,88;15,88
2677,95;15,92
2676,02;15,95
2674,09;15,99
2672,16;16,04
2670,23;16,11
2668,30;16,22
2666,37;16,37
2664,44;16,56
2662,51;16,75
2660,58;16,96
2658,65;17,17
2656,72;17,37
2654,79;17,57
2652,86;17,75
2650,93;17,91
2649,00;18,06
2647,07;18,20
2645,14;18,34
2643,21;18,46
2641,28;18,58
2639,35;18,69
2637,42;18,81
2635,49;18,91
2633,56;19,01
2631,63;19,11
2629,70;19,20
2627,77;19,30
2625,84;19,39
2623,91;19,48
2621,98;19,58
2620,05;19,67
2618,12;19,77
2616,19;19,86
2614,26;19,96
2612,33;20,06
2610,40;20,16
2608,47;20,27
2606,54;20,38
2604,61;20,50
2602,68;20,63
2600,75;20,77
2598,82;20,92
2596,89;21,08
2594,96;21,25
2593,03;21,44
2591,10;21,63
2589,17;21,82
2587,24;22,03
2585,31;22,24
2583,38;22,47
2581,45;22,69
2579,52;22,92
2577,59;23,16
2575,66;23,39
2573,73;23,62
2571,80;23,85
2569,87;24,07
2567,94;24,29
2566,01;24,49
2564,08;24,69
2562,15;24,87
2560,22;25,05
2558,29;25,21
2556,36;25,37
2554,43;25,52
2552,50;25,65
2550,57;25,78
2548,64;25,90
2546,71;26,02
2544,78;26,13
2542,85;26,24
2540,92;26,34
2538,99;26,43
2537,06;26,53
2535,13;26,62
2533,20;26,71
2531,27;26,81
2529,34;26,92
2527,41;27,05
2525,48;27,17
2523,55;27,30
2521,62;27,43
2519,69;27,56
2517,76;27,69
2515,83;27,81
2513,90;27,93
2511,97;28,04
2510,04;28,16
2508,11;28,26
2506,18;28,37
2504,25;28,46
2502,32;28,56
2500,39;28,65
2498,46;28,73
2496,53;28,82
2494,60;28,89
2492,67;28,97
2490,74;29,04
2488,81;29,11
2486,88;29,17
2484,95;29,23
2483,02;29,29
2481,09;29,34
2479,16;29,39
2477,23;29,45
2475,30;29,50
2473,37;29,55
2471,44;29,59
2469,51;29,64
2467,58;29,68
2465,65;29,72
2463,72;29,75
2461,79;29,79
2459,86;29,82
2457,93;29,85
2456,00;29,88
2454,07;29,90
2452,14;29,92
2450,21;29,94
2448,28;29,96
2446,35;29,97
2444,42;29,98
2442,49;29,99
2440,56;29,99
2438,63;29,99
2436,70;30,00
2434,77;30,00
2432,84;29,99
2430,91;29,99
2428,98;29,98
2427,05;29,98
2425,12;29,97
2423,19;29,97
2421,26;29,97
2419,33;29,96
2417,40;29,95
2415,47;29,94
2413,54;29,94
2411,61;29,93
2409,68;29,93
2407,75;29,93
2405,82;29,93
2403,89;29,94
2401,96;29,95
2400,03;29,96
2398,10;29,99
2396,17;30,01
2394,24;30,05
2392,31;30,08
2390,38;30,11
2388,45;30,14
2386,52;30,17
2384,59;30,18
2382,66;30,18
2380,73;30,17
2378,80;30,16
2376,87;30,15
2374,94;30,15
2373,01;30,17
2371,08;30,19
2369,15;30,20
2367,22;30,21
2365,29;30,21
2363,36;30,21
2361,43;30,20
2359,50;30,19
2357,57;30,20
2355,64;30,20
2353,71;30,21
2351,78;30,21
2349,85;30,22
2347,92;30,24
2345,99;30,25
2344,06;30,24
2342,13;30,25
2340,20;30,24
2338,27;30,23
2336,34;30,21
2334,41;30,23
2332,48;30,28
2330,55;30,34
2328,62;30,38
2326,69;30,42
2324,76;30,44
2322,83;30,45
2320,90;30,47
2318,97;30,51
2317,04;30,55
2315,11;30,58
2313,18;30,61
2311,25;30,65
2309,32;30,70
2307,39;30,75
2305,46;30,81
2303,53;30,86
2301,60;30,91
2299,67;30,96
2297,74;31,01
2295,81;31,05
2293,88;31,09
2291,95;31,12
2290,02;31,15
2288,09;31,19
2286,16;31,23
2284,23;31,27
2282,30;31,31
2280,37;31,36
2278,44;31,41
2276,51;31,46
2274,58;31,50
2272,65;31,54
2270,72;31,57
2268,79;31,61
2266,86;31,64
2264,93;31,67
2263,00;31,71
2261,07;31,75
2259,14;31,78
2257,21;31,82
2255,28;31,85
2253,35;31,88
2251,42;31,91
2249,49;31,94
2247,56;31,97
2245,63;32,00
2243,70;32,02
2241,77;32,05
2239,84;32,07
2237,91;32,09
2235,98;32,10
2234,05;32,12
2232,12;32,13
2230,19;32,14
2228,26;32,15
2226,33;32,16
2224,40;32,17
2222,47;32,18
2220,54;32,19
2218,61;32,20
2216,68;32,21
2214,75;32,21
2212,82;32,22
2210,89;32,22
2208,96;32,22
2207,03;32,22
2205,10;32,22
2203,17;32,22
2201,24;32,22
2199,31;32,22
2197,38;32,21
2195,45;32,20
2193,52;32,19
2191,59;32,18
2189,66;32,17
2187,73;32,15
2185,80;32,14
2183,87;32,14
2181,94;32,14
2180,01;32,15
2178,08;32,16
2176,15;32,17
2174,22;32,18
2172,29;32,19
2170,36;32,20
2168,43;32,21
2166,50;32,22
2164,57;32,23
2162,64;32,24
2160,71;32,25
2158,78;32,26
2156,85;32,28
2154,92;32,30
2152,99;32,32
2151,06;32,35
2149,13;32,40
2147,20;32,45
2145,27;32,52
2143,34;32,58
2141,41;32,65
2139,48;32,72
2137,55;32,78
2135,62;32,82
2133,69;32,87
2131,76;32,91
2129,83;32,95
2127,90;32,99
2125,97;33,03
2124,04;33,07
2122,11;33,12
2120,18;33,16
2118,25;33,21
2116,32;33,25
2114,39;33,30
2112,46;33,35
2110,53;33,40
2108,60;33,45
2106,67;33,50
2104,74;33,55
2102,81;33,59
2100,88;33,64
2098,95;33,69
2097,02;33,74
2095,09;33,79
2093,16;33,83
2091,23;33,88
2089,30;33,92
2087,37;33,96
2085,44;34,01
2083,51;34,05
2081,58;34,09
2079,65;34,13
2077,72;34,17
2075,79;34,20
2073,86;34,24
2071,93;34,27
2070,00;34,30
2068,07;34,32
2066,14;34,34
2064,21;34,35
2062,28;34,37
2060,35;34,38
2058,42;34,39
2056,49;34,39
2054,56;34,39
2052,63;34,40
2050,70;34,41
2048,77;34,42
2046,84;34,44
2044,91;34,45
2042,98;34,48
2041,05;34,50
2039,12;34,53
2037,19;34,56
2035,26;34,60
2033,33;34,64
2031,40;34,68
2029,47;34,73
2027,54;34,79
2025,61;34,85
2023,68;34,94
2021,75;35,03
2019,82;35,14
2017,89;35,27
2015,96;35,40
2014,03;35,54
2012,10;35,66
2010,17;35,77
2008,24;35,86
2006,31;35,94
2004,38;36,00
2002,45;36,05
2000,52;36,09
1998,59;36,14
1996,66;36,17
1994,73;36,19
1992,80;36,20
1990,87;36,18
1988,94;36,19
1987,01;36,19
1985,08;36,20
1983,15;36,20
1981,22;36,20
1979,29;36,20
1977,36;36,20
1975,43;36,20
1973,50;36,22
1971,57;36,20
1969,64;36,20
1967,71;36,20
1965,78;36,19
1963,85;36,19
1961,92;36,20
1959,99;36,20
1958,06;36,20
1956,13;36,20
1954,20;36,21
1952,27;36,24
1950,34;36,27
1948,41;36,33
1946,48;36,38
1944,55;36,42
1942,62;36,43
1940,69;36,42
1938,76;36,45
1936,83;36,51
1934,90;36,59
1932,97;36,69
1931,04;36,77
1929,11;36,87
1927,18;36,93
1925,25;37,03
1923,32;37,17
1921,39;37,24
1919,46;37,29
1917,53;37,28
1915,60;37,30
1913,67;37,35
1911,74;37,40
1909,81;37,47
1907,88;37,51
1905,95;37,56
1904,02;37,60
1902,09;37,65
1900,16;37,69
1898,23;37,72
1896,30;37,76
1894,37;37,79
1892,44;37,87
1890,51;37,91
1888,58;37,89
1886,65;37,91
1884,72;37,96
1882,79;37,99
1880,86;38,03
1878,93;38,07
1877,00;38,12
1875,07;38,18
1873,14;38,33
1871,21;38,35
1869,28;38,35
1867,35;38,35
1865,42;38,39
1863,49;38,43
1861,56;38,47
1859,63;38,50
1857,70;38,53
1855,77;38,56
1853,84;38,59
1851,91;38,62
1849,98;38,75
1848,05;38,85
1846,12;38,88
1844,19;38,78
1842,26;38,68
1840,33;38,68
1838,40;38,71
1836,47;38,77
1834,54;38,82
1832,61;38,80
1830,68;38,85
1828,75;38,80
1826,82;38,74
1824,89;38,64
1822,96;38,56
1821,03;38,55
1819,10;38,50
1817,17;38,45
1815,24;38,37
1813,31;38,31
1811,38;38,23
1809,45;38,12
1807,52;38,05
1805,59;38,00
1803,66;37,84
1801,73;37,62
1799,80;37,39
1797,87;37,28
1795,94;37,19
1794,01;37,04
1792,08;36,73
1790,15;36,43
1788,22;36,25
1786,29;36,02
1784,36;35,66
1782,43;35,35
1780,50;35,04
1778,57;34,75
1776,64;34,48
1774,71;34,28
1772,78;34,16
1770,85;33,83
1768,92;33,56
1766,99;33,32
1765,06;33,11
1763,13;32,79
1761,20;32,26
1759,27;31,58
1757,34;30,69
1755,41;29,37
1753,48;27,81
1751,55;25,71
1749,62;23,52
1747,69;21,92
1745,76;21,16
1743,83;21,09
1741,90;21,40
1739,97;21,91
1738,04;22,36
1736,11;22,62
1734,18;22,82
1732,25;22,95
1730,32;23,07
1728,39;23,15
1726,46;23,20
1724,53;23,25
1722,60;23,23
1720,67;22,97
1718,74;22,62
1716,81;22,04
1714,88;21,35
1712,95;20,72
1711,02;20,25
1709,09;19,87
1707,16;19,68
1705,23;19,72
1703,30;19,83
1701,37;19,87
1699,44;19,88
1697,51;20,10
1695,58;20,30
1693,65;20,37
1691,72;20,41
1689,79;20,36
1687,86;20,21
1685,93;20,11
1684,00;19,69
1682,07;19,20
1680,14;18,86
1678,21;18,48
1676,28;17,98
1674,35;17,40
1672,42;16,93
1670,49;16,47
1668,56;15,95
1666,63;15,55
1664,70;15,21
1662,77;14,84
1660,84;14,53
1658,91;14,37
1656,98;14,21
1655,05;14,03
1653,12;13,93
1651,19;13,87
1649,26;13,84
1647,33;13,87
1645,40;13,91
1643,47;13,98
1641,54;14,11
1639,61;14,24
1637,68;14,38
1635,75;14,42
1633,82;14,35
1631,89;14,37
1629,96;14,68
1628,03;15,31
1626,10;15,97
1624,17;16,55
1622,24;17,05
1620,31;17,36
1618,38;17,68
1616,45;18,05
1614,52;18,30
1612,59;18,48
1610,66;18,60
1608,73;18,71
1606,80;18,87
1604,87;19,13
1602,94;19,46
1601,01;19,81
1599,08;20,18
1597,15;20,58
1595,22;20,98
1593,29;21,34
1591,36;21,67
1589,43;22,00
1587,50;22,34
1585,57;22,65
1583,64;22,94
1581,71;23,20
1579,78;23,44
1577,85;23,68
1575,92;23,93
1573,99;24,20
1572,06;24,41
1570,13;24,61
1568,20;24,80
1566,27;25,00
1564,34;25,19
1562,41;25,39
1560,48;25,56
1558,55;25,76
1556,62;25,97
1554,69;26,13
1552,76;26,31
1550,83;26,48
1548,90;26,67
1546,97;27,02
1545,04;27,17
1543,11;27,06
1541,18;27,05
1539,25;27,05
1537,32;27,05
1535,39;26,98
1533,46;26,78
1531,53;26,53
1529,60;26,34
1527,67;26,06
1525,74;25,67
1523,81;25,21
1521,88;24,69
1519,95;23,79
1518,02;22,96
1516,09;22,14
1514,16;21,65
1512,23;21,43
1510,30;21,16
1508,37;20,86
1506,44;20,25
1504,51;19,58
1502,58;19,09
1500,65;18,42
1498,72;17,45
1496,79;16,22
1494,86;14,95
1492,93;13,73
1491,00;12,32
1489,07;10,77
1487,14;9,40
1485,21;8,19
1483,28;7,01
1481,35;5,75
1479,42;4,49
1477,49;3,32
1475,56;2,26
1473,63;1,44
1471,70;0,88
1469,77;0,63
1467,84;0,54
1465,91;0,52
1463,98;0,51
1462,05;0,52
1460,12;0,50
1458,19;0,51
1456,26;0,52
1454,33;0,55
1452,40;0,56
1450,47;0,59
1448,54;0,62
1446,61;0,69
1444,68;0,76
1442,75;0,88
1440,82;1,03
1438,89;1,24
1436,96;1,56
1435,03;2,07
1433,10;2,69
1431,17;3,52
1429,24;4,48
1427,31;5,34
1425,38;6,04
1423,45;6,65
1421,52;7,11
1419,59;7,49
1417,66;7,83
1415,73;8,09
1413,80;8,28
1411,87;8,42
1409,94;8,49
1408,01;8,50
1406,08;8,46
1404,15;8,38
1402,22;8,28
1400,29;8,13
1398,36;7,90
1396,43;7,53
1394,50;6,94
1392,57;6,22
1390,64;5,48
1388,71;4,59
1386,78;3,49
1384,85;2,45
1382,92;1,68
1380,99;1,13
1379,06;0,81
1377,13;0,71
1375,20;0,82
1373,27;1,12
1371,34;1,45
1369,41;1,59
1367,48;1,56
1365,55;1,65
1363,62;2,12
1361,69;2,84
1359,76;3,44
1357,83;3,77
1355,90;3,84
1353,97;3,78
1352,04;3,78
1350,11;4,00
1348,18;4,55
1346,25;5,31
1344,32;6,03
1342,39;6,56
1340,46;6,99
1338,53;7,47
1336,60;7,98
1334,67;8,48
1332,74;8,92
1330,81;9,31
1328,88;9,64
1326,95;9,93
1325,02;10,17
1323,09;10,34
1321,16;10,40
1319,23;10,36
1317,30;10,23
1315,37;10,04
1313,44;9,81
1311,51;9,56
1309,58;9,29
1307,65;9,03
1305,72;8,83
1303,79;8,71
1301,86;8,70
1299,93;8,82
1298,00;9,03
1296,07;9,29
1294,14;9,57
1292,21;9,82
1290,28;10,04
1288,35;10,23
1286,42;10,43
1284,49;10,64
1282,56;10,85
1280,63;11,04
1278,70;11,22
1276,77;11,38
1274,84;11,55
1272,91;11,72
1270,98;11,88
1269,05;11,98
1267,12;12,02
1265,19;11,95
1263,26;11,78
1261,33;11,54
1259,40;11,26
1257,47;10,95
1255,54;10,62
1253,61;10,29
1251,68;9,98
1249,75;9,77
1247,82;9,70
1245,89;9,80
1243,96;10,05
1242,03;10,39
1240,10;10,73
1238,17;10,99
1236,24;11,12
1234,31;11,17
1232,38;11,23
1230,45;11,38
1228,52;11,61
1226,59;11,88
1224,66;12,16
1222,73;12,44
1220,80;12,70
1218,87;12,93
1216,94;13,10
1215,01;13,19
1213,08;13,14
1211,15;12,94
1209,22;12,52
1207,29;11,88
1205,36;11,06
1203,43;10,26
1201,50;9,77
1199,57;9,77
1197,64;10,21
1195,71;10,89
1193,78;11,57
1191,85;12,12
1189,92;12,49
1187,99;12,69
1186,06;12,70
1184,13;12,54
1182,20;12,21
1180,27;11,82
1178,34;11,45
1176,41;11,06
1174,48;10,59
1172,55;10,03
1170,62;9,49
1168,69;9,05
1166,76;8,69
1164,83;8,31
1162,90;7,87
1160,97;7,37
1159,04;6,85
1157,11;6,31
1155,18;5,76
1153,25;5,22
1151,32;4,67
1149,39;4,16
1147,46;3,71
1145,53;3,35
1143,60;3,06
1141,67;2,87
1139,74;2,73
1137,81;2,63
1135,88;2,55
1133,95;2,48
1132,02;2,40
1130,09;2,33
1128,16;2,24
1126,23;2,15
1124,30;2,07
1122,37;2,00
1120,44;1,95
1118,51;1,91
1116,58;1,87
1114,65;1,81
1112,72;1,74
1110,79;1,66
1108,86;1,60
1106,93;1,54
1105,00;1,50
1103,07;1,47
1101,14;1,45
1099,21;1,43
1097,28;1,44
1095,35;1,47
1093,42;1,52
1091,49;1,59
1089,56;1,68
1087,63;1,78
1085,70;1,90
1083,77;2,03
1081,84;2,16
1079,91;2,27
1077,98;2,38
1076,05;2,47
1074,12;2,57
1072,19;2,68
1070,26;2,81
1068,33;2,98
1066,40;3,20
1064,47;3,50
1062,54;3,89
1060,61;4,39
1058,68;4,98
1056,75;5,64
1054,82;6,34
1052,89;7,05
1050,96;7,73
1049,03;8,32
1047,10;8,76
1045,17;9,04
1043,24;9,18
1041,31;9,24
1039,38;9,29
1037,45;9,36
1035,52;9,45
1033,59;9,55
1031,66;9,62
1029,73;9,67
1027,80;9,79
1025,87;10,03
1023,94;10,45
1022,01;11,06
1020,08;11,85
1018,15;12,78
1016,22;13,77
1014,29;14,76
1012,36;15,70
1010,43;16,55
1008,50;17,32
1006,57;17,98
1004,64;18,50
1002,71;18,86
1000,78;19,09
998,85;19,25
996,92;19,36
994,99;19,45
993,06;19,51
991,13;19,53
989,20;19,52
987,27;19,49
985,34;19,45
983,41;19,44
981,48;19,47
979,55;19,53
977,62;19,60
975,69;19,66
973,76;19,70
971,83;19,72
969,90;19,70
967,97;19,66
966,04;19,65
964,11;19,71
962,18;19,83
960,25;19,92
958,32;19,87
956,39;19,62
954,46;19,19
952,53;18,64
950,60;18,03
948,67;17,39
946,74;16,77
944,81;16,27
942,88;15,91
940,95;15,66
939,02;15,51
937,09;15,45
935,16;15,54
933,23;15,82
931,30;16,28
929,37;16,83
927,44;17,40
925,51;17,92
923,58;18,37
921,65;18,75
919,72;19,15
917,79;19,73
915,86;20,52
913,93;21,35
912,00;22,08
910,07;22,66
908,14;23,10
906,21;23,41
904,28;23,54
902,35;23,42
900,42;22,98
898,49;22,23
896,56;21,21
894,63;20,06
892,70;18,94
890,77;18,01
888,84;17,47
886,91;17,40
884,98;17,74
883,05;18,35
881,12;19,07
879,19;19,79
877,26;20,41
875,33;20,88
873,40;21,19
871,47;21,37
869,54;21,44
867,61;21,41
865,68;21,26
863,75;20,97
861,82;20,50
859,89;19,88
857,96;19,13
856,03;18,34
854,10;17,64
852,17;17,13
850,24;16,88
848,31;16,87
846,38;17,11
844,45;17,51
842,52;18,00
840,59;18,53
838,66;19,01
836,73;19,37
834,80;19,63
832,87;19,88
830,94;20,14
829,01;20,39
827,08;20,66
825,15;20,92
823,22;21,10
821,29;21,19
819,36;21,21
817,43;21,23
815,50;21,31
813,57;21,49
811,64;21,68
809,71;21,80
807,78;21,79
805,85;21,79
803,92;22,01
801,99;22,44
800,06;22,80
798,13;22,95
796,20;22,89
794,27;22,80
792,34;22,78
790,41;22,72
788,48;22,51
786,55;22,14
784,62;21,61
782,69;21,03
780,76;20,54
778,83;20,15
776,90;19,75
774,97;19,30
773,04;18,81
771,11;18,31
769,18;17,83
767,25;17,56
765,32;17,62
763,39;17,81
761,46;17,87
759,53;17,74
757,60;17,48
755,67;17,13
753,74;16,74
751,81;16,34
749,88;15,97
747,95;15,59
746,02;15,07
744,09;14,38
742,16;13,58
740,23;12,96
738,30;12,60
736,37;12,28
734,44;11,83
732,51;11,16
730,58;10,17
728,65;8,96
726,72;7,86
724,79;6,98
722,86;6,39
720,93;6,53
719,00;7,68
717,07;9,49
715,14;11,34
713,21;12,96
711,28;14,32
709,35;15,45
707,42;16,34
705,49;16,98
703,56;17,41
701,63;17,65
699,70;17,76
697,77;17,95
695,84;18,32
693,91;18,74
691,98;19,12
690,05;19,43
688,12;19,65
686,19;19,70
684,26;19,62
682,33;19,41
680,40;19,12
678,47;18,84
676,54;18,66
674,61;18,71
672,68;18,97
670,75;19,24
668,82;19,44
666,89;19,68
664,96;19,79
663,03;19,84
661,10;19,88
659,17;19,94
657,24;20,01
655,31;20,07
653,38;20,13
651,45;20,19
649,52;20,24
647,59;20,27
645,66;20,31
643,73;20,33
641,80;20,33
639,87;20,32
637,94;20,29
636,01;20,26
634,08;20,24
632,15;20,21
630,22;20,18
628,29;20,15
626,36;20,16
624,43;20,21
622,50;20,25
620,57;20,26
618,64;20,24
616,71;20,21
614,78;20,18
612,85;20,15
610,92;20,11
608,99;20,06
607,06;19,98
605,13;19,87
603,20;19,80
601,27;19,77
599,34;19,82
597,41;19,91
595,48;20,01
593,55;20,08
591,62;20,14
589,69;20,19
587,76;20,20
585,83;20,22
583,90;20,22
581,97;20,23
580,04;20,25
578,11;20,29
576,18;20,32
574,25;20,33
572,32;20,35
570,39;20,39
568,46;20,42
566,53;20,46
564,60;20,51
562,67;20,58
560,74;20,66
558,81;20,73
556,88;20,77
554,95;20,82
553,02;20,87
551,09;20,95
549,16;21,04
547,23;21,15
545,30;21,25
543,37;21,34
541,44;21,39
539,51;21,43
537,58;21,50
535,65;21,63
533,72;21,77
531,79;21,89
529,86;22,01
527,93;22,16
526,00;22,29
524,07;22,44
522,14;22,63
520,21;22,84
518,28;23,09
516,35;23,34
514,42;23,59
512,49;23,84
510,56;24,11
508,63;24,37
506,70;24,65
504,77;24,94
502,84;25,22
500,91;25,43
