Created as New Dataset;Amostra 402 por Laboratório data segunda-feira, setembro 23 2024
cm-1;%T
4000,00;18,68
3998,07;18,72
3996,14;18,75
3994,21;18,79
3992,28;18,84
3990,35;18,89
3988,42;18,94
3986,49;18,99
3984,56;19,05
3982,63;19,10
3980,70;19,15
3978,77;19,20
3976,84;19,24
3974,91;19,28
3972,98;19,31
3971,05;19,34
3969,12;19,37
3967,19;19,40
3965,26;19,42
3963,33;19,45
3961,40;19,46
3959,47;19,48
3957,54;19,50
3955,61;19,52
3953,68;19,53
3951,75;19,55
3949,82;19,57
3947,89;19,58
3945,96;19,60
3944,03;19,61
3942,10;19,62
3940,17;19,63
3938,24;19,63
3936,31;19,64
3934,38;19,65
3932,45;19,66
3930,52;19,67
3928,59;19,68
3926,66;19,68
3924,73;19,69
3922,80;19,70
3920,87;19,71
3918,94;19,72
3917,01;19,73
3915,08;19,73
3913,15;19,73
3911,22;19,74
3909,29;19,74
3907,36;19,75
3905,43;19,76
3903,50;19,79
3901,57;19,82
3899,64;19,84
3897,71;19,84
3895,78;19,84
3893,85;19,84
3891,92;19,84
3889,99;19,85
3888,06;19,87
3886,13;19,88
3884,20;19,89
3882,27;19,90
3880,34;19,91
3878,41;19,91
3876,48;19,92
3874,55;19,93
3872,62;19,93
3870,69;19,96
3868,76;19,98
3866,83;19,99
3864,90;20,01
3862,97;20,01
3861,04;20,01
3859,11;20,01
3857,18;20,00
3855,25;20,00
3853,32;20,04
3851,39;20,07
3849,46;20,07
3847,53;20,05
3845,60;20,04
3843,67;20,03
3841,74;20,03
3839,81;20,05
3837,88;20,06
3835,95;20,07
3834,02;20,07
3832,09;20,07
3830,16;20,06
3828,23;20,05
3826,30;20,04
3824,37;20,03
3822,44;20,05
3820,51;20,05
3818,58;20,08
3816,65;20,10
3814,72;20,09
3812,79;20,08
3810,86;20,08
3808,93;20,08
3807,00;20,10
3805,07;20,11
3803,14;20,13
3801,21;20,14
3799,28;20,15
3797,35;20,15
3795,42;20,14
3793,49;20,13
3791,56;20,12
3789,63;20,10
3787,70;20,10
3785,77;20,10
3783,84;20,10
3781,91;20,10
3779,98;20,11
3778,05;20,11
3776,12;20,12
3774,19;20,11
3772,26;20,11
3770,33;20,11
3768,40;20,11
3766,47;20,11
3764,54;20,10
3762,61;20,09
3760,68;20,08
3758,75;20,07
3756,82;20,07
3754,89;20,06
3752,96;20,07
3751,03;20,07
3749,10;20,08
3747,17;20,07
3745,24;20,06
3743,31;20,02
3741,38;19,99
3739,45;19,95
3737,52;19,92
3735,59;19,89
3733,66;19,86
3731,73;19,83
3729,80;19,78
3727,87;19,74
3725,94;19,68
3724,01;19,64
3722,08;19,59
3720,15;19,55
3718,22;19,50
3716,29;19,45
3714,36;19,39
3712,43;19,33
3710,50;19,26
3708,57;19,18
3706,64;19,09
3704,71;18,98
3702,78;18,87
3700,85;18,76
3698,92;18,64
3696,99;18,51
3695,06;18,38
3693,13;18,25
3691,20;18,12
3689,27;17,98
3687,34;17,83
3685,41;17,67
3683,48;17,50
3681,55;17,32
3679,62;17,14
3677,69;16,97
3675,76;16,77
3673,83;16,56
3671,90;16,36
3669,97;16,11
3668,04;15,85
3666,11;15,60
3664,18;15,34
3662,25;15,07
3660,32;14,80
3658,39;14,55
3656,46;14,28
3654,53;14,01
3652,60;13,75
3650,67;13,49
3648,74;13,21
3646,81;12,92
3644,88;12,65
3642,95;12,39
3641,02;12,14
3639,09;11,92
3637,16;11,71
3635,23;11,51
3633,30;11,32
3631,37;11,15
3629,44;10,97
3627,51;10,76
3625,58;10,57
3623,65;10,39
3621,72;10,21
3619,79;10,03
3617,86;9,85
3615,93;9,69
3614,00;9,53
3612,07;9,37
3610,14;9,21
3608,21;9,05
3606,28;8,90
3604,35;8,75
3602,42;8,62
3600,49;8,49
3598,56;8,38
3596,63;8,26
3594,70;8,14
3592,77;8,02
3590,84;7,90
3588,91;7,78
3586,98;7,64
3585,05;7,51
3583,12;7,38
3581,19;7,26
3579,26;7,13
3577,33;7,00
3575,40;6,88
3573,47;6,75
3571,54;6,63
3569,61;6,52
3567,68;6,41
3565,75;6,29
3563,82;6,18
3561,89;6,06
3559,96;5,95
3558,03;5,84
3556,10;5,73
3554,17;5,63
3552,24;5,53
3550,31;5,43
3548,38;5,33
3546,45;5,23
3544,52;5,13
3542,59;5,04
3540,66;4,96
3538,73;4,87
3536,80;4,78
3534,87;4,70
3532,94;4,62
3531,01;4,55
3529,08;4,47
3527,15;4,39
3525,22;4,31
3523,29;4,24
3521,36;4,17
3519,43;4,10
3517,50;4,03
3515,57;3,96
3513,64;3,89
3511,71;3,83
3509,78;3,76
3507,85;3,70
3505,92;3,64
3503,99;3,58
3502,06;3,53
3500,13;3,47
3498,20;3,42
3496,27;3,37
3494,34;3,32
3492,41;3,27
3490,48;3,23
3488,55;3,18
3486,62;3,14
3484,69;3,10
3482,76;3,05
3480,83;3,01
3478,90;2,98
3476,97;2,94
3475,04;2,91
3473,11;2,87
3471,18;2,84
3469,25;2,81
3467,32;2,78
3465,39;2,75
3463,46;2,73
3461,53;2,70
3459,60;2,68
3457,67;2,65
3455,74;2,63
3453,81;2,61
3451,88;2,60
3449,95;2,58
3448,02;2,56
3446,09;2,54
3444,16;2,52
3442,23;2,50
3440,30;2,48
3438,37;2,47
3436,44;2,45
3434,51;2,44
3432,58;2,43
3430,65;2,43
3428,72;2,42
3426,79;2,42
3424,86;2,42
3422,93;2,41
3421,00;2,41
3419,07;2,41
3417,14;2,41
3415,21;2,41
3413,28;2,41
3411,35;2,41
3409,42;2,41
3407,49;2,42
3405,56;2,43
3403,63;2,43
3401,70;2,43
3399,77;2,45
3397,84;2,47
3395,91;2,48
3393,98;2,49
3392,05;2,50
3390,12;2,52
3388,19;2,55
3386,26;2,57
3384,33;2,59
3382,40;2,61
3380,47;2,64
3378,54;2,66
3376,61;2,69
3374,68;2,71
3372,75;2,74
3370,82;2,76
3368,89;2,79
3366,96;2,82
3365,03;2,86
3363,10;2,90
3361,17;2,93
3359,24;2,97
3357,31;3,01
3355,38;3,04
3353,45;3,08
3351,52;3,12
3349,59;3,16
3347,66;3,21
3345,73;3,25
3343,80;3,29
3341,87;3,33
3339,94;3,38
3338,01;3,42
3336,08;3,47
3334,15;3,52
3332,22;3,57
3330,29;3,61
3328,36;3,66
3326,43;3,70
3324,50;3,75
3322,57;3,80
3320,64;3,85
3318,71;3,90
3316,78;3,94
3314,85;3,99
3312,92;4,04
3310,99;4,08
3309,06;4,12
3307,13;4,16
3305,20;4,21
3303,27;4,26
3301,34;4,31
3299,41;4,36
3297,48;4,40
3295,55;4,44
3293,62;4,49
3291,69;4,53
3289,76;4,58
3287,83;4,63
3285,90;4,67
3283,97;4,72
3282,04;4,76
3280,11;4,80
3278,18;4,85
3276,25;4,89
3274,32;4,94
3272,39;4,98
3270,46;5,03
3268,53;5,08
3266,60;5,12
3264,67;5,17
3262,74;5,22
3260,81;5,27
3258,88;5,32
3256,95;5,37
3255,02;5,42
3253,09;5,48
3251,16;5,53
3249,23;5,58
3247,30;5,64
3245,37;5,70
3243,44;5,76
3241,51;5,82
3239,58;5,88
3237,65;5,94
3235,72;6,00
3233,79;6,06
3231,86;6,12
3229,93;6,19
3228,00;6,25
3226,07;6,32
3224,14;6,38
3222,21;6,45
3220,28;6,52
3218,35;6,58
3216,42;6,65
3214,49;6,72
3212,56;6,78
3210,63;6,85
3208,70;6,92
3206,77;6,99
3204,84;7,06
3202,91;7,13
3200,98;7,20
3199,05;7,28
3197,12;7,36
3195,19;7,44
3193,26;7,52
3191,33;7,61
3189,40;7,70
3187,47;7,80
3185,54;7,89
3183,61;7,99
3181,68;8,10
3179,75;8,21
3177,82;8,32
3175,89;8,44
3173,96;8,55
3172,03;8,67
3170,10;8,80
3168,17;8,92
3166,24;9,05
3164,31;9,18
3162,38;9,32
3160,45;9,45
3158,52;9,59
3156,59;9,72
3154,66;9,86
3152,73;10,00
3150,80;10,14
3148,87;10,28
3146,94;10,42
3145,01;10,56
3143,08;10,70
3141,15;10,84
3139,22;10,98
3137,29;11,12
3135,36;11,25
3133,43;11,39
3131,50;11,52
3129,57;11,65
3127,64;11,78
3125,71;11,90
3123,78;12,03
3121,85;12,14
3119,92;12,26
3117,99;12,37
3116,06;12,48
3114,13;12,59
3112,20;12,69
3110,27;12,78
3108,34;12,87
3106,41;12,95
3104,48;13,03
3102,55;13,11
3100,62;13,18
3098,69;13,25
3096,76;13,31
3094,83;13,36
3092,90;13,39
3090,97;13,41
3089,04;13,42
3087,11;13,42
3085,18;13,41
3083,25;13,40
3081,32;13,37
3079,39;13,33
3077,46;13,28
3075,53;13,22
3073,60;13,15
3071,67;13,08
3069,74;12,99
3067,81;12,90
3065,88;12,81
3063,95;12,73
3062,02;12,65
3060,09;12,58
3058,16;12,50
3056,23;12,43
3054,30;12,35
3052,37;12,25
3050,44;12,14
3048,51;12,02
3046,58;11,88
3044,65;11,73
3042,72;11,56
3040,79;11,38
3038,86;11,18
3036,93;10,96
3035,00;10,71
3033,07;10,44
3031,14;10,13
3029,21;9,79
3027,28;9,44
3025,35;9,07
3023,42;8,67
3021,49;8,25
3019,56;7,79
3017,63;7,30
3015,70;6,79
3013,77;6,28
3011,84;5,78
3009,91;5,30
3007,98;4,83
3006,05;4,36
3004,12;3,90
3002,19;3,43
3000,26;2,96
2998,33;2,51
2996,40;2,08
2994,47;1,68
2992,54;1,32
2990,61;1,01
2988,68;0,75
2986,75;0,54
2984,82;0,36
2982,89;0,23
2980,96;0,13
2979,03;0,07
2977,10;0,04
2975,17;0,03
2973,24;0,02
2971,31;0,02
2969,38;0,02
2967,45;0,02
2965,52;0,02
2963,59;0,02
2961,66;0,01
2959,73;0,01
2957,80;0,01
2955,87;0,01
2953,94;0,01
2952,01;0,01
2950,08;0,01
2948,15;0,01
2946,22;0,00
2944,29;0,00
2942,36;0,00
2940,43;0,00
2938,50;0,01
2936,57;0,00
2934,64;0,00
2932,71;0,00
2930,78;0,01
2928,85;0,00
2926,92;0,00
2924,99;0,00
2923,06;0,00
2921,13;0,00
2919,20;0,01
2917,27;0,01
2915,34;0,01
2913,41;0,00
2911,48;0,00
2909,55;0,00
2907,62;0,00
2905,69;0,01
2903,76;0,01
2901,83;0,01
2899,90;0,01
2897,97;0,01
2896,04;0,01
2894,11;0,00
2892,18;0,01
2890,25;0,01
2888,32;0,01
2886,39;0,01
2884,46;0,01
2882,53;0,01
2880,60;0,01
2878,67;0,01
2876,74;0,01
2874,81;0,01
2872,88;0,01
2870,95;0,01
2869,02;0,01
2867,09;0,01
2865,16;0,01
2863,23;0,01
2861,30;0,01
2859,37;0,02
2857,44;0,02
2855,51;0,02
2853,58;0,02
2851,65;0,02
2849,72;0,02
2847,79;0,02
2845,86;0,02
2843,93;0,02
2842,00;0,02
2840,07;0,02
2838,14;0,03
2836,21;0,06
2834,28;0,13
2832,35;0,25
2830,42;0,43
2828,49;0,68
2826,56;0,99
2824,63;1,34
2822,70;1,72
2820,77;2,14
2818,84;2,58
2816,91;3,05
2814,98;3,54
2813,05;4,05
2811,12;4,58
2809,19;5,13
2807,26;5,70
2805,33;6,29
2803,40;6,87
2801,47;7,46
2799,54;8,04
2797,61;8,62
2795,68;9,19
2793,75;9,77
2791,82;10,35
2789,89;10,93
2787,96;11,53
2786,03;12,13
2784,10;12,73
2782,17;13,33
2780,24;13,92
2778,31;14,48
2776,38;15,01
2774,45;15,50
2772,52;15,95
2770,59;16,35
2768,66;16,70
2766,73;17,01
2764,80;17,27
2762,87;17,47
2760,94;17,64
2759,01;17,78
2757,08;17,91
2755,15;18,03
2753,22;18,12
2751,29;18,18
2749,36;18,19
2747,43;18,17
2745,50;18,09
2743,57;17,97
2741,64;17,79
2739,71;17,55
2737,78;17,25
2735,85;16,89
2733,92;16,50
2731,99;16,14
2730,06;15,90
2728,13;15,83
2726,20;15,90
2724,27;16,06
2722,34;16,27
2720,41;16,51
2718,48;16,80
2716,55;17,14
2714,62;17,53
2712,69;17,94
2710,76;18,32
2708,83;18,65
2706,90;18,91
2704,97;19,10
2703,04;19,23
2701,11;19,30
2699,18;19,33
2697,25;19,30
2695,32;19,24
2693,39;19,16
2691,46;19,05
2689,53;18,95
2687,60;18,87
2685,67;18,82
2683,74;18,79
2681,81;18,79
2679,88;18,79
2677,95;18,81
2676,02;18,83
2674,09;18,85
2672,16;18,88
2670,23;18,95
2668,30;19,07
2666,37;19,25
2664,44;19,46
2662,51;19,69
2660,58;19,94
2658,65;20,18
2656,72;20,42
2654,79;20,64
2652,86;20,84
2650,93;21,02
2649,00;21,19
2647,07;21,35
2645,14;21,50
2643,21;21,64
2641,28;21,77
2639,35;21,90
2637,42;22,02
2635,49;22,13
2633,56;22,24
2631,63;22,35
2629,70;22,45
2627,77;22,55
2625,84;22,65
2623,91;22,75
2621,98;22,85
2620,05;22,95
2618,12;23,06
2616,19;23,16
2614,26;23,28
2612,33;23,39
2610,40;23,52
2608,47;23,65
2606,54;23,78
2604,61;23,92
2602,68;24,08
2600,75;24,24
2598,82;24,42
2596,89;24,61
2594,96;24,80
2593,03;25,01
2591,10;25,22
2589,17;25,44
2587,24;25,68
2585,31;25,92
2583,38;26,16
2581,45;26,41
2579,52;26,67
2577,59;26,93
2575,66;27,18
2573,73;27,44
2571,80;27,69
2569,87;27,94
2567,94;28,18
2566,01;28,40
2564,08;28,62
2562,15;28,82
2560,22;29,01
2558,29;29,19
2556,36;29,37
2554,43;29,53
2552,50;29,68
2550,57;29,82
2548,64;29,95
2546,71;30,08
2544,78;30,20
2542,85;30,32
2540,92;30,43
2538,99;30,54
2537,06;30,64
2535,13;30,73
2533,20;30,84
2531,27;30,95
2529,34;31,07
2527,41;31,21
2525,48;31,35
2523,55;31,49
2521,62;31,64
2519,69;31,78
2517,76;31,92
2515,83;32,06
2513,90;32,19
2511,97;32,32
2510,04;32,44
2508,11;32,56
2506,18;32,67
2504,25;32,77
2502,32;32,87
2500,39;32,97
2498,46;33,06
2496,53;33,15
2494,60;33,23
2492,67;33,31
2490,74;33,38
2488,81;33,45
2486,88;33,51
2484,95;33,57
2483,02;33,62
2481,09;33,67
2479,16;33,72
2477,23;33,76
2475,30;33,81
2473,37;33,85
2471,44;33,88
2469,51;33,92
2467,58;33,95
2465,65;33,98
2463,72;34,00
2461,79;34,03
2459,86;34,05
2457,93;34,06
2456,00;34,08
2454,07;34,09
2452,14;34,10
2450,21;34,10
2448,28;34,11
2446,35;34,11
2444,42;34,11
2442,49;34,10
2440,56;34,10
2438,63;34,08
2436,70;34,07
2434,77;34,05
2432,84;34,03
2430,91;34,01
2428,98;33,97
2427,05;33,94
2425,12;33,93
2423,19;33,93
2421,26;33,93
2419,33;33,92
2417,40;33,90
2415,47;33,89
2413,54;33,88
2411,61;33,87
2409,68;33,86
2407,75;33,86
2405,82;33,86
2403,89;33,86
2401,96;33,87
2400,03;33,89
2398,10;33,91
2396,17;33,93
2394,24;33,96
2392,31;33,99
2390,38;34,01
2388,45;34,02
2386,52;34,03
2384,59;34,01
2382,66;33,98
2380,73;33,92
2378,80;33,85
2376,87;33,81
2374,94;33,79
2373,01;33,80
2371,08;33,82
2369,15;33,83
2367,22;33,83
2365,29;33,81
2363,36;33,79
2361,43;33,77
2359,50;33,74
2357,57;33,73
2355,64;33,72
2353,71;33,71
2351,78;33,71
2349,85;33,72
2347,92;33,74
2345,99;33,74
2344,06;33,72
2342,13;33,74
2340,20;33,72
2338,27;33,64
2336,34;33,55
2334,41;33,56
2332,48;33,67
2330,55;33,81
2328,62;33,92
2326,69;33,99
2324,76;34,01
2322,83;34,02
2320,90;34,07
2318,97;34,14
2317,04;34,21
2315,11;34,26
2313,18;34,31
2311,25;34,37
2309,32;34,44
2307,39;34,53
2305,46;34,61
2303,53;34,69
2301,60;34,76
2299,67;34,83
2297,74;34,90
2295,81;34,96
2293,88;35,03
2291,95;35,09
2290,02;35,14
2288,09;35,20
2286,16;35,25
2284,23;35,30
2282,30;35,35
2280,37;35,41
2278,44;35,47
2276,51;35,53
2274,58;35,58
2272,65;35,63
2270,72;35,67
2268,79;35,72
2266,86;35,76
2264,93;35,81
2263,00;35,86
2261,07;35,90
2259,14;35,95
2257,21;35,99
2255,28;36,03
2253,35;36,07
2251,42;36,11
2249,49;36,15
2247,56;36,18
2245,63;36,22
2243,70;36,25
2241,77;36,28
2239,84;36,30
2237,91;36,33
2235,98;36,35
2234,05;36,37
2232,12;36,39
2230,19;36,40
2228,26;36,42
2226,33;36,43
2224,40;36,44
2222,47;36,46
2220,54;36,47
2218,61;36,48
2216,68;36,49
2214,75;36,49
2212,82;36,50
2210,89;36,50
2208,96;36,50
2207,03;36,51
2205,10;36,51
2203,17;36,52
2201,24;36,52
2199,31;36,53
2197,38;36,53
2195,45;36,53
2193,52;36,52
2191,59;36,52
2189,66;36,51
2187,73;36,51
2185,80;36,52
2183,87;36,52
2181,94;36,54
2180,01;36,56
2178,08;36,59
2176,15;36,62
2174,22;36,65
2172,29;36,67
2170,36;36,70
2168,43;36,73
2166,50;36,75
2164,57;36,77
2162,64;36,80
2160,71;36,82
2158,78;36,85
2156,85;36,88
2154,92;36,91
2152,99;36,94
2151,06;36,99
2149,13;37,05
2147,20;37,12
2145,27;37,21
2143,34;37,31
2141,41;37,40
2139,48;37,48
2137,55;37,56
2135,62;37,64
2133,69;37,70
2131,76;37,75
2129,83;37,80
2127,90;37,85
2125,97;37,90
2124,04;37,94
2122,11;37,98
2120,18;38,01
2118,25;38,04
2116,32;38,08
2114,39;38,12
2112,46;38,15
2110,53;38,19
2108,60;38,22
2106,67;38,26
2104,74;38,29
2102,81;38,32
2100,88;38,36
2098,95;38,39
2097,02;38,42
2095,09;38,44
2093,16;38,47
2091,23;38,49
2089,30;38,53
2087,37;38,56
2085,44;38,58
2083,51;38,61
2081,58;38,64
2079,65;38,66
2077,72;38,69
2075,79;38,71
2073,86;38,74
2071,93;38,76
2070,00;38,77
2068,07;38,78
2066,14;38,80
2064,21;38,83
2062,28;38,85
2060,35;38,85
2058,42;38,86
2056,49;38,87
2054,56;38,87
2052,63;38,87
2050,70;38,87
2048,77;38,87
2046,84;38,86
2044,91;38,85
2042,98;38,85
2041,05;38,86
2039,12;38,88
2037,19;38,89
2035,26;38,90
2033,33;38,93
2031,40;38,96
2029,47;39,01
2027,54;39,06
2025,61;39,13
2023,68;39,22
2021,75;39,32
2019,82;39,44
2017,89;39,61
2015,96;39,81
2014,03;39,99
2012,10;40,14
2010,17;40,29
2008,24;40,42
2006,31;40,54
2004,38;40,64
2002,45;40,73
2000,52;40,81
1998,59;40,88
1996,66;40,93
1994,73;40,98
1992,80;41,04
1990,87;41,12
1988,94;41,19
1987,01;41,24
1985,08;41,29
1983,15;41,33
1981,22;41,38
1979,29;41,42
1977,36;41,47
1975,43;41,51
1973,50;41,55
1971,57;41,56
1969,64;41,56
1967,71;41,60
1965,78;41,67
1963,85;41,70
1961,92;41,72
1959,99;41,73
1958,06;41,75
1956,13;41,76
1954,20;41,79
1952,27;41,81
1950,34;41,82
1948,41;41,81
1946,48;41,80
1944,55;41,81
1942,62;41,83
1940,69;41,86
1938,76;41,83
1936,83;41,83
1934,90;41,86
1932,97;41,90
1931,04;41,93
1929,11;41,95
1927,18;41,94
1925,25;41,92
1923,32;41,94
1921,39;42,04
1919,46;42,05
1917,53;42,04
1915,60;42,04
1913,67;42,00
1911,74;41,96
1909,81;41,98
1907,88;42,03
1905,95;42,05
1904,02;42,05
1902,09;42,06
1900,16;42,05
1898,23;42,04
1896,30;42,04
1894,37;42,07
1892,44;42,08
1890,51;42,08
1888,58;42,12
1886,65;42,13
1884,72;42,13
1882,79;42,15
1880,86;42,17
1878,93;42,19
1877,00;42,22
1875,07;42,24
1873,14;42,26
1871,21;42,25
1869,28;42,27
1867,35;42,42
1865,42;42,49
1863,49;42,47
1861,56;42,48
1859,63;42,50
1857,70;42,54
1855,77;42,55
1853,84;42,57
1851,91;42,56
1849,98;42,51
1848,05;42,54
1846,12;42,63
1844,19;42,63
1842,26;42,68
1840,33;42,64
1838,40;42,57
1836,47;42,57
1834,54;42,55
1832,61;42,51
1830,68;42,44
1828,75;42,51
1826,82;42,53
1824,89;42,46
1822,96;42,40
1821,03;42,34
1819,10;42,26
1817,17;42,19
1815,24;42,07
1813,31;41,95
1811,38;41,86
1809,45;41,81
1807,52;41,66
1805,59;41,48
1803,66;41,25
1801,73;41,05
1799,80;40,84
1797,87;40,59
1795,94;40,40
1794,01;40,23
1792,08;40,07
1790,15;39,90
1788,22;39,64
1786,29;39,33
1784,36;38,96
1782,43;38,58
1780,50;38,20
1778,57;37,78
1776,64;37,29
1774,71;36,81
1772,78;36,43
1770,85;36,12
1768,92;35,58
1766,99;34,70
1765,06;33,68
1763,13;32,20
1761,20;30,12
1759,27;27,64
1757,34;24,66
1755,41;21,29
1753,48;18,22
1751,55;15,46
1749,62;13,54
1747,69;12,80
1745,76;13,09
1743,83;14,12
1741,90;15,52
1739,97;16,91
1738,04;18,10
1736,11;18,87
1734,18;19,58
1732,25;20,41
1730,32;21,09
1728,39;21,72
1726,46;22,37
1724,53;22,98
1722,60;23,53
1720,67;23,79
1718,74;23,65
1716,81;23,58
1714,88;23,25
1712,95;22,61
1711,02;21,95
1709,09;21,40
1707,16;21,02
1705,23;20,82
1703,30;20,92
1701,37;20,98
1699,44;21,06
1697,51;21,38
1695,58;21,77
1693,65;22,15
1691,72;22,30
1689,79;22,35
1687,86;22,32
1685,93;22,25
1684,00;22,36
1682,07;22,33
1680,14;22,10
1678,21;21,89
1676,28;21,57
1674,35;21,16
1672,42;20,83
1670,49;20,52
1668,56;20,18
1666,63;19,87
1664,70;19,57
1662,77;19,25
1660,84;18,97
1658,91;18,67
1656,98;18,38
1655,05;18,06
1653,12;17,87
1651,19;17,84
1649,26;17,76
1647,33;17,63
1645,40;17,56
1643,47;17,43
1641,54;17,27
1639,61;17,09
1637,68;16,95
1635,75;16,78
1633,82;16,47
1631,89;16,22
1629,96;16,28
1628,03;16,70
1626,10;17,22
1624,17;17,63
1622,24;17,95
1620,31;18,09
1618,38;18,12
1616,45;18,29
1614,52;18,49
1612,59;18,47
1610,66;18,36
1608,73;18,29
1606,80;18,34
1604,87;18,51
1602,94;18,77
1601,01;19,08
1599,08;19,43
1597,15;19,85
1595,22;20,30
1593,29;20,72
1591,36;21,07
1589,43;21,42
1587,50;21,76
1585,57;22,09
1583,64;22,39
1581,71;22,65
1579,78;22,79
1577,85;22,91
1575,92;23,36
1573,99;23,88
1572,06;24,16
1570,13;24,40
1568,20;24,69
1566,27;24,93
1564,34;25,10
1562,41;25,31
1560,48;25,40
1558,55;26,06
1556,62;26,42
1554,69;26,61
1552,76;26,84
1550,83;27,11
1548,90;27,38
1546,97;27,57
1545,04;27,63
1543,11;27,68
1541,18;27,74
1539,25;28,13
1537,32;28,37
1535,39;28,42
1533,46;28,36
1531,53;28,19
1529,60;27,91
1527,67;27,52
1525,74;27,07
1523,81;26,47
1521,88;25,77
1519,95;24,93
1518,02;24,06
1516,09;23,29
1514,16;22,93
1512,23;22,83
1510,30;22,79
1508,37;22,66
1506,44;22,74
1504,51;22,40
1502,58;21,99
1500,65;21,42
1498,72;20,66
1496,79;19,70
1494,86;18,57
1492,93;17,33
1491,00;15,79
1489,07;14,15
1487,14;12,62
1485,21;11,17
1483,28;9,69
1481,35;8,06
1479,42;6,34
1477,49;4,61
1475,56;2,94
1473,63;1,56
1471,70;0,55
1469,77;0,13
1467,84;0,02
1465,91;0,01
1463,98;0,01
1462,05;0,01
1460,12;0,01
1458,19;0,01
1456,26;0,01
1454,33;0,02
1452,40;0,03
1450,47;0,08
1448,54;0,13
1446,61;0,23
1444,68;0,36
1442,75;0,58
1440,82;0,88
1438,89;1,29
1436,96;1,93
1435,03;2,91
1433,10;4,17
1431,17;5,86
1429,24;7,80
1427,31;9,58
1425,38;11,00
1423,45;12,17
1421,52;13,01
1419,59;13,70
1417,66;14,35
1415,73;14,85
1413,80;15,21
1411,87;15,51
1409,94;15,66
1408,01;15,70
1406,08;15,62
1404,15;15,48
1402,22;15,24
1400,29;14,91
1398,36;14,38
1396,43;13,57
1394,50;12,27
1392,57;10,64
1390,64;8,94
1388,71;7,07
1386,78;4,93
1384,85;3,06
1382,92;1,76
1380,99;0,89
1379,06;0,38
1377,13;0,23
1375,20;0,43
1373,27;0,98
1371,34;1,60
1369,41;1,86
1367,48;1,78
1365,55;2,00
1363,62;3,03
1361,69;4,64
1359,76;6,10
1357,83;7,06
1355,90;7,60
1353,97;7,91
1352,04;8,20
1350,11;8,62
1348,18;9,16
1346,25;9,67
1344,32;10,03
1342,39;10,27
1340,46;10,60
1338,53;11,25
1336,60;12,08
1334,67;12,89
1332,74;13,62
1330,81;14,23
1328,88;14,70
1326,95;15,04
1325,02;15,25
1323,09;15,33
1321,16;15,26
1319,23;15,10
1317,30;14,87
1315,37;14,64
1313,44;14,45
1311,51;14,29
1309,58;14,16
1307,65;14,05
1305,72;13,99
1303,79;13,99
1301,86;14,10
1299,93;14,33
1298,00;14,67
1296,07;15,08
1294,14;15,48
1292,21;15,85
1290,28;16,17
1288,35;16,42
1286,42;16,61
1284,49;16,73
1282,56;16,76
1280,63;16,70
1278,70;16,60
1276,77;16,49
1274,84;16,46
1272,91;16,50
1270,98;16,63
1269,05;16,80
1267,12;17,00
1265,19;17,19
1263,26;17,35
1261,33;17,50
1259,40;17,65
1257,47;17,76
1255,54;17,81
1253,61;17,77
1251,68;17,65
1249,75;17,46
1247,82;17,24
1245,89;17,04
1243,96;16,88
1242,03;16,74
1240,10;16,54
1238,17;16,21
1236,24;15,78
1234,31;15,38
1232,38;15,18
1230,45;15,26
1228,52;15,54
1226,59;15,94
1224,66;16,38
1222,73;16,80
1220,80;17,18
1218,87;17,51
1216,94;17,78
1215,01;17,99
1213,08;18,12
1211,15;18,19
1209,22;18,20
1207,29;18,15
1205,36;18,06
1203,43;17,93
1201,50;17,79
1199,57;17,64
1197,64;17,48
1195,71;17,30
1193,78;17,10
1191,85;16,93
1189,92;16,80
1187,99;16,68
1186,06;16,51
1184,13;16,20
1182,20;15,74
1180,27;15,23
1178,34;14,79
1176,41;14,36
1174,48;13,86
1172,55;13,30
1170,62;12,81
1168,69;12,55
1166,76;12,48
1164,83;12,47
1162,90;12,40
1160,97;12,29
1159,04;12,18
1157,11;12,11
1155,18;12,13
1153,25;12,25
1151,32;12,47
1149,39;12,78
1147,46;13,16
1145,53;13,60
1143,60;14,10
1141,67;14,64
1139,74;15,26
1137,81;15,90
1135,88;16,53
1133,95;17,12
1132,02;17,62
1130,09;17,96
1128,16;18,15
1126,23;18,18
1124,30;18,11
1122,37;18,02
1120,44;18,00
1118,51;18,11
1116,58;18,30
1114,65;18,54
1112,72;18,77
1110,79;18,98
1108,86;19,15
1106,93;19,24
1105,00;19,25
1103,07;19,23
1101,14;19,19
1099,21;19,16
1097,28;19,09
1095,35;18,99
1093,42;18,86
1091,49;18,74
1089,56;18,64
1087,63;18,60
1085,70;18,63
1083,77;18,73
1081,84;18,88
1079,91;19,09
1077,98;19,36
1076,05;19,70
1074,12;20,11
1072,19;20,56
1070,26;20,97
1068,33;21,31
1066,40;21,59
1064,47;21,85
1062,54;22,15
1060,61;22,51
1058,68;22,91
1056,75;23,27
1054,82;23,56
1052,89;23,74
1050,96;23,84
1049,03;23,85
1047,10;23,81
1045,17;23,72
1043,24;23,63
1041,31;23,54
1039,38;23,49
1037,45;23,48
1035,52;23,54
1033,59;23,67
1031,66;23,87
1029,73;24,12
1027,80;24,39
1025,87;24,64
1023,94;24,84
1022,01;25,00
1020,08;25,15
1018,15;25,29
1016,22;25,37
1014,29;25,37
1012,36;25,31
1010,43;25,28
1008,50;25,36
1006,57;25,52
1004,64;25,66
1002,71;25,72
1000,78;25,72
998,85;25,73
996,92;25,76
994,99;25,82
993,06;25,89
991,13;25,95
989,20;25,97
987,27;25,95
985,34;25,88
983,41;25,78
981,48;25,65
979,55;25,47
977,62;25,24
975,69;25,01
973,76;24,79
971,83;24,61
969,90;24,48
967,97;24,42
966,04;24,50
964,11;24,76
962,18;25,16
960,25;25,60
958,32;25,98
956,39;26,26
954,46;26,49
952,53;26,75
950,60;27,09
948,67;27,43
946,74;27,73
944,81;27,99
942,88;28,22
940,95;28,40
939,02;28,55
937,09;28,67
935,16;28,81
933,23;28,99
931,30;29,20
929,37;29,40
927,44;29,56
925,51;29,62
923,58;29,58
921,65;29,46
919,72;29,37
917,79;29,50
915,86;29,91
913,93;30,38
912,00;30,70
910,07;30,87
908,14;30,97
906,21;31,03
904,28;31,03
902,35;30,89
900,42;30,61
898,49;30,18
896,56;29,64
894,63;29,08
892,70;28,57
890,77;28,23
888,84;28,16
886,91;28,39
884,98;28,73
883,05;29,00
881,12;29,16
879,19;29,28
877,26;29,37
875,33;29,44
873,40;29,46
871,47;29,48
869,54;29,45
867,61;29,38
865,68;29,29
863,75;29,19
861,82;29,09
859,89;29,01
857,96;28,89
856,03;28,75
854,10;28,61
852,17;28,46
850,24;28,30
848,31;28,17
846,38;28,11
844,45;28,10
842,52;28,15
840,59;28,24
838,66;28,28
836,73;28,18
834,80;27,98
832,87;27,77
830,94;27,60
829,01;27,43
827,08;27,22
825,15;26,94
823,22;26,60
821,29;26,24
819,36;25,93
817,43;25,68
815,50;25,55
813,57;25,55
811,64;25,64
809,71;25,68
807,78;25,66
805,85;25,65
803,92;25,84
801,99;26,19
800,06;26,48
798,13;26,56
796,20;26,45
794,27;26,26
792,34;26,04
790,41;25,74
788,48;25,31
786,55;24,75
784,62;24,03
782,69;23,28
780,76;22,66
778,83;22,19
776,90;21,73
774,97;21,25
773,04;20,75
771,11;20,32
769,18;20,00
767,25;19,83
765,32;19,84
763,39;19,94
761,46;19,93
759,53;19,75
757,60;19,43
755,67;19,01
753,74;18,51
751,81;18,01
749,88;17,57
747,95;17,16
746,02;16,68
744,09;16,06
742,16;15,33
740,23;14,67
738,30;14,19
736,37;13,77
734,44;13,26
732,51;12,51
730,58;11,48
728,65;10,21
726,72;8,91
724,79;7,70
722,86;6,91
720,93;7,08
719,00;8,55
717,07;10,84
715,14;13,23
713,21;15,36
711,28;17,22
709,35;18,80
707,42;20,10
705,49;21,06
703,56;21,72
701,63;22,08
699,70;22,30
697,77;22,75
695,84;23,60
693,91;24,46
691,98;25,10
690,05;25,55
688,12;25,94
686,19;26,27
684,26;26,54
682,33;26,71
680,40;26,80
678,47;26,85
676,54;26,85
674,61;26,85
672,68;26,86
670,75;26,84
668,82;26,78
666,89;26,90
664,96;26,90
663,03;26,83
661,10;26,78
659,17;26,77
657,24;26,82
655,31;26,91
653,38;27,00
651,45;27,13
649,52;27,26
647,59;27,41
645,66;27,59
643,73;27,75
641,80;27,89
639,87;28,00
637,94;28,07
636,01;28,13
634,08;28,20
632,15;28,24
630,22;28,25
628,29;28,23
626,36;28,24
624,43;28,29
622,50;28,34
620,57;28,35
618,64;28,33
616,71;28,32
614,78;28,34
612,85;28,33
610,92;28,33
608,99;28,27
607,06;28,20
605,13;28,11
603,20;28,05
601,27;28,05
599,34;28,16
597,41;28,31
595,48;28,47
593,55;28,58
591,62;28,69
589,69;28,79
587,76;28,88
585,83;28,97
583,90;29,07
581,97;29,15
580,04;29,25
578,11;29,33
576,18;29,40
574,25;29,45
572,32;29,46
570,39;29,48
568,46;29,49
566,53;29,53
564,60;29,59
562,67;29,69
560,74;29,80
558,81;29,92
556,88;30,01
554,95;30,14
553,02;30,25
551,09;30,40
549,16;30,53
547,23;30,71
545,30;30,88
543,37;31,05
541,44;31,16
539,51;31,26
537,58;31,37
535,65;31,55
533,72;31,72
531,79;31,86
529,86;31,98
527,93;32,13
526,00;32,31
524,07;32,48
522,14;32,60
520,21;32,73
518,28;32,92
516,35;33,16
514,42;33,39
512,49;33,57
510,56;33,76
508,63;33,90
506,70;34,07
504,77;34,20
502,84;34,37
500,91;34,48
