Created as New Dataset;Amostra 394 por Laboratório data segunda-feira, setembro 23 2024
cm-1;%T
4000,00;15,32
3998,07;15,35
3996,14;15,37
3994,21;15,40
3992,28;15,44
3990,35;15,47
3988,42;15,51
3986,49;15,55
3984,56;15,59
3982,63;15,63
3980,70;15,67
3978,77;15,70
3976,84;15,73
3974,91;15,76
3972,98;15,79
3971,05;15,81
3969,12;15,83
3967,19;15,85
3965,26;15,87
3963,33;15,88
3961,40;15,90
3959,47;15,91
3957,54;15,92
3955,61;15,93
3953,68;15,94
3951,75;15,95
3949,82;15,96
3947,89;15,98
3945,96;15,99
3944,03;15,99
3942,10;16,00
3940,17;16,01
3938,24;16,01
3936,31;16,01
3934,38;16,02
3932,45;16,03
3930,52;16,03
3928,59;16,04
3926,66;16,04
3924,73;16,05
3922,80;16,05
3920,87;16,06
3918,94;16,07
3917,01;16,08
3915,08;16,08
3913,15;16,09
3911,22;16,09
3909,29;16,09
3907,36;16,09
3905,43;16,10
3903,50;16,12
3901,57;16,14
3899,64;16,16
3897,71;16,16
3895,78;16,16
3893,85;16,16
3891,92;16,17
3889,99;16,18
3888,06;16,19
3886,13;16,19
3884,20;16,20
3882,27;16,21
3880,34;16,22
3878,41;16,23
3876,48;16,23
3874,55;16,23
3872,62;16,24
3870,69;16,26
3868,76;16,27
3866,83;16,28
3864,90;16,28
3862,97;16,29
3861,04;16,29
3859,11;16,29
3857,18;16,27
3855,25;16,26
3853,32;16,28
3851,39;16,30
3849,46;16,31
3847,53;16,30
3845,60;16,29
3843,67;16,28
3841,74;16,27
3839,81;16,27
3837,88;16,27
3835,95;16,27
3834,02;16,27
3832,09;16,27
3830,16;16,26
3828,23;16,24
3826,30;16,23
3824,37;16,21
3822,44;16,21
3820,51;16,21
3818,58;16,21
3816,65;16,21
3814,72;16,20
3812,79;16,20
3810,86;16,18
3808,93;16,17
3807,00;16,17
3805,07;16,17
3803,14;16,17
3801,21;16,16
3799,28;16,15
3797,35;16,14
3795,42;16,13
3793,49;16,11
3791,56;16,08
3789,63;16,06
3787,70;16,03
3785,77;16,01
3783,84;16,00
3781,91;15,98
3779,98;15,96
3778,05;15,94
3776,12;15,92
3774,19;15,90
3772,26;15,87
3770,33;15,85
3768,40;15,82
3766,47;15,79
3764,54;15,75
3762,61;15,72
3760,68;15,68
3758,75;15,64
3756,82;15,60
3754,89;15,56
3752,96;15,52
3751,03;15,48
3749,10;15,43
3747,17;15,38
3745,24;15,32
3743,31;15,25
3741,38;15,18
3739,45;15,11
3737,52;15,03
3735,59;14,95
3733,66;14,87
3731,73;14,77
3729,80;14,68
3727,87;14,58
3725,94;14,47
3724,01;14,36
3722,08;14,25
3720,15;14,12
3718,22;13,99
3716,29;13,85
3714,36;13,71
3712,43;13,55
3710,50;13,36
3708,57;13,16
3706,64;12,95
3704,71;12,74
3702,78;12,51
3700,85;12,25
3698,92;11,98
3696,99;11,71
3695,06;11,42
3693,13;11,14
3691,20;10,83
3689,27;10,49
3687,34;10,13
3685,41;9,78
3683,48;9,44
3681,55;9,09
3679,62;8,74
3677,69;8,38
3675,76;7,96
3673,83;7,55
3671,90;7,18
3669,97;6,77
3668,04;6,36
3666,11;5,99
3664,18;5,63
3662,25;5,28
3660,32;4,94
3658,39;4,63
3656,46;4,31
3654,53;4,00
3652,60;3,74
3650,67;3,48
3648,74;3,21
3646,81;2,96
3644,88;2,75
3642,95;2,56
3641,02;2,38
3639,09;2,22
3637,16;2,07
3635,23;1,94
3633,30;1,82
3631,37;1,72
3629,44;1,61
3627,51;1,49
3625,58;1,39
3623,65;1,30
3621,72;1,23
3619,79;1,16
3617,86;1,08
3615,93;1,02
3614,00;0,96
3612,07;0,91
3610,14;0,85
3608,21;0,80
3606,28;0,75
3604,35;0,71
3602,42;0,67
3600,49;0,63
3598,56;0,60
3596,63;0,57
3594,70;0,54
3592,77;0,51
3590,84;0,49
3588,91;0,46
3586,98;0,43
3585,05;0,40
3583,12;0,39
3581,19;0,37
3579,26;0,36
3577,33;0,34
3575,40;0,32
3573,47;0,31
3571,54;0,29
3569,61;0,28
3567,68;0,27
3565,75;0,26
3563,82;0,24
3561,89;0,23
3559,96;0,22
3558,03;0,21
3556,10;0,20
3554,17;0,19
3552,24;0,18
3550,31;0,18
3548,38;0,17
3546,45;0,15
3544,52;0,14
3542,59;0,14
3540,66;0,14
3538,73;0,14
3536,80;0,13
3534,87;0,13
3532,94;0,13
3531,01;0,13
3529,08;0,12
3527,15;0,12
3525,22;0,11
3523,29;0,10
3521,36;0,10
3519,43;0,10
3517,50;0,10
3515,57;0,09
3513,64;0,09
3511,71;0,08
3509,78;0,08
3507,85;0,08
3505,92;0,07
3503,99;0,06
3502,06;0,06
3500,13;0,06
3498,20;0,05
3496,27;0,05
3494,34;0,05
3492,41;0,05
3490,48;0,05
3488,55;0,04
3486,62;0,04
3484,69;0,04
3482,76;0,04
3480,83;0,04
3478,90;0,04
3476,97;0,04
3475,04;0,05
3473,11;0,04
3471,18;0,04
3469,25;0,03
3467,32;0,03
3465,39;0,04
3463,46;0,04
3461,53;0,04
3459,60;0,04
3457,67;0,05
3455,74;0,05
3453,81;0,05
3451,88;0,05
3449,95;0,05
3448,02;0,05
3446,09;0,05
3444,16;0,05
3442,23;0,05
3440,30;0,04
3438,37;0,04
3436,44;0,03
3434,51;0,03
3432,58;0,03
3430,65;0,04
3428,72;0,04
3426,79;0,04
3424,86;0,04
3422,93;0,04
3421,00;0,04
3419,07;0,04
3417,14;0,04
3415,21;0,03
3413,28;0,03
3411,35;0,03
3409,42;0,03
3407,49;0,03
3405,56;0,03
3403,63;0,03
3401,70;0,02
3399,77;0,02
3397,84;0,03
3395,91;0,03
3393,98;0,03
3392,05;0,02
3390,12;0,03
3388,19;0,03
3386,26;0,03
3384,33;0,03
3382,40;0,03
3380,47;0,03
3378,54;0,03
3376,61;0,03
3374,68;0,03
3372,75;0,03
3370,82;0,03
3368,89;0,03
3366,96;0,03
3365,03;0,03
3363,10;0,03
3361,17;0,03
3359,24;0,03
3357,31;0,03
3355,38;0,04
3353,45;0,04
3351,52;0,03
3349,59;0,04
3347,66;0,04
3345,73;0,04
3343,80;0,04
3341,87;0,04
3339,94;0,04
3338,01;0,04
3336,08;0,04
3334,15;0,04
3332,22;0,05
3330,29;0,05
3328,36;0,05
3326,43;0,05
3324,50;0,05
3322,57;0,05
3320,64;0,05
3318,71;0,06
3316,78;0,06
3314,85;0,06
3312,92;0,06
3310,99;0,06
3309,06;0,06
3307,13;0,07
3305,20;0,07
3303,27;0,07
3301,34;0,08
3299,41;0,08
3297,48;0,08
3295,55;0,08
3293,62;0,09
3291,69;0,09
3289,76;0,09
3287,83;0,10
3285,90;0,10
3283,97;0,10
3282,04;0,10
3280,11;0,11
3278,18;0,11
3276,25;0,11
3274,32;0,12
3272,39;0,12
3270,46;0,12
3268,53;0,13
3266,60;0,13
3264,67;0,14
3262,74;0,14
3260,81;0,15
3258,88;0,15
3256,95;0,16
3255,02;0,16
3253,09;0,16
3251,16;0,17
3249,23;0,18
3247,30;0,18
3245,37;0,19
3243,44;0,20
3241,51;0,20
3239,58;0,21
3237,65;0,22
3235,72;0,23
3233,79;0,24
3231,86;0,25
3229,93;0,26
3228,00;0,27
3226,07;0,28
3224,14;0,29
3222,21;0,30
3220,28;0,31
3218,35;0,33
3216,42;0,34
3214,49;0,36
3212,56;0,37
3210,63;0,39
3208,70;0,40
3206,77;0,42
3204,84;0,44
3202,91;0,46
3200,98;0,48
3199,05;0,50
3197,12;0,53
3195,19;0,55
3193,26;0,57
3191,33;0,60
3189,40;0,63
3187,47;0,66
3185,54;0,69
3183,61;0,72
3181,68;0,76
3179,75;0,79
3177,82;0,83
3175,89;0,87
3173,96;0,91
3172,03;0,95
3170,10;0,99
3168,17;1,04
3166,24;1,09
3164,31;1,14
3162,38;1,19
3160,45;1,24
3158,52;1,30
3156,59;1,36
3154,66;1,41
3152,73;1,47
3150,80;1,54
3148,87;1,61
3146,94;1,67
3145,01;1,74
3143,08;1,82
3141,15;1,89
3139,22;1,96
3137,29;2,04
3135,36;2,12
3133,43;2,20
3131,50;2,28
3129,57;2,36
3127,64;2,45
3125,71;2,53
3123,78;2,62
3121,85;2,70
3119,92;2,79
3117,99;2,88
3116,06;2,97
3114,13;3,06
3112,20;3,15
3110,27;3,24
3108,34;3,33
3106,41;3,42
3104,48;3,51
3102,55;3,60
3100,62;3,69
3098,69;3,78
3096,76;3,87
3094,83;3,96
3092,90;4,04
3090,97;4,12
3089,04;4,19
3087,11;4,26
3085,18;4,33
3083,25;4,39
3081,32;4,46
3079,39;4,51
3077,46;4,57
3075,53;4,62
3073,60;4,67
3071,67;4,71
3069,74;4,74
3067,81;4,78
3065,88;4,81
3063,95;4,85
3062,02;4,88
3060,09;4,92
3058,16;4,95
3056,23;4,98
3054,30;5,01
3052,37;5,03
3050,44;5,04
3048,51;5,05
3046,58;5,04
3044,65;5,03
3042,72;5,01
3040,79;4,99
3038,86;4,96
3036,93;4,91
3035,00;4,85
3033,07;4,77
3031,14;4,68
3029,21;4,57
3027,28;4,45
3025,35;4,33
3023,42;4,19
3021,49;4,04
3019,56;3,87
3017,63;3,69
3015,70;3,50
3013,77;3,29
3011,84;3,08
3009,91;2,86
3007,98;2,63
3006,05;2,38
3004,12;2,13
3002,19;1,88
3000,26;1,62
2998,33;1,38
2996,40;1,14
2994,47;0,92
2992,54;0,73
2990,61;0,56
2988,68;0,41
2986,75;0,29
2984,82;0,20
2982,89;0,12
2980,96;0,07
2979,03;0,04
2977,10;0,02
2975,17;0,01
2973,24;0,01
2971,31;0,01
2969,38;0,01
2967,45;0,01
2965,52;0,01
2963,59;0,01
2961,66;0,01
2959,73;0,01
2957,80;0,01
2955,87;0,01
2953,94;0,01
2952,01;0,00
2950,08;0,00
2948,15;0,00
2946,22;0,00
2944,29;0,00
2942,36;0,00
2940,43;0,00
2938,50;0,00
2936,57;0,00
2934,64;0,00
2932,71;0,00
2930,78;0,00
2928,85;0,00
2926,92;0,00
2924,99;0,00
2923,06;0,00
2921,13;0,00
2919,20;0,00
2917,27;0,00
2915,34;0,00
2913,41;0,00
2911,48;0,00
2909,55;0,00
2907,62;0,00
2905,69;0,00
2903,76;0,00
2901,83;0,00
2899,90;0,00
2897,97;0,00
2896,04;0,00
2894,11;0,00
2892,18;0,00
2890,25;0,00
2888,32;0,00
2886,39;0,00
2884,46;0,00
2882,53;0,00
2880,60;0,00
2878,67;0,00
2876,74;0,00
2874,81;0,00
2872,88;0,00
2870,95;0,00
2869,02;0,00
2867,09;0,01
2865,16;0,01
2863,23;0,01
2861,30;0,01
2859,37;0,01
2857,44;0,01
2855,51;0,01
2853,58;0,01
2851,65;0,01
2849,72;0,01
2847,79;0,01
2845,86;0,02
2843,93;0,02
2842,00;0,02
2840,07;0,01
2838,14;0,02
2836,21;0,03
2834,28;0,07
2832,35;0,15
2830,42;0,28
2828,49;0,45
2826,56;0,67
2824,63;0,92
2822,70;1,21
2820,77;1,52
2818,84;1,85
2816,91;2,21
2814,98;2,58
2813,05;2,97
2811,12;3,39
2809,19;3,82
2807,26;4,26
2805,33;4,72
2803,40;5,18
2801,47;5,64
2799,54;6,10
2797,61;6,57
2795,68;7,03
2793,75;7,50
2791,82;7,97
2789,89;8,45
2787,96;8,94
2786,03;9,44
2784,10;9,94
2782,17;10,45
2780,24;10,94
2778,31;11,41
2776,38;11,86
2774,45;12,28
2772,52;12,66
2770,59;13,01
2768,66;13,31
2766,73;13,58
2764,80;13,80
2762,87;13,98
2760,94;14,13
2759,01;14,26
2757,08;14,38
2755,15;14,49
2753,22;14,57
2751,29;14,63
2749,36;14,65
2747,43;14,64
2745,50;14,59
2743,57;14,49
2741,64;14,35
2739,71;14,15
2737,78;13,91
2735,85;13,61
2733,92;13,27
2731,99;12,97
2730,06;12,76
2728,13;12,70
2726,20;12,77
2724,27;12,91
2722,34;13,09
2720,41;13,30
2718,48;13,56
2716,55;13,86
2714,62;14,20
2712,69;14,56
2710,76;14,90
2708,83;15,18
2706,90;15,41
2704,97;15,58
2703,04;15,70
2701,11;15,77
2699,18;15,80
2697,25;15,79
2695,32;15,74
2693,39;15,67
2691,46;15,59
2689,53;15,51
2687,60;15,45
2685,67;15,40
2683,74;15,38
2681,81;15,38
2679,88;15,38
2677,95;15,39
2676,02;15,40
2674,09;15,41
2672,16;15,44
2670,23;15,49
2668,30;15,59
2666,37;15,74
2664,44;15,92
2662,51;16,13
2660,58;16,34
2658,65;16,55
2656,72;16,76
2654,79;16,95
2652,86;17,13
2650,93;17,29
2649,00;17,44
2647,07;17,57
2645,14;17,70
2643,21;17,82
2641,28;17,94
2639,35;18,05
2637,42;18,15
2635,49;18,25
2633,56;18,35
2631,63;18,44
2629,70;18,52
2627,77;18,61
2625,84;18,70
2623,91;18,79
2621,98;18,87
2620,05;18,96
2618,12;19,05
2616,19;19,15
2614,26;19,25
2612,33;19,35
2610,40;19,46
2608,47;19,57
2606,54;19,69
2604,61;19,81
2602,68;19,95
2600,75;20,09
2598,82;20,25
2596,89;20,41
2594,96;20,59
2593,03;20,77
2591,10;20,96
2589,17;21,15
2587,24;21,36
2585,31;21,57
2583,38;21,78
2581,45;22,00
2579,52;22,23
2577,59;22,45
2575,66;22,68
2573,73;22,90
2571,80;23,12
2569,87;23,34
2567,94;23,54
2566,01;23,74
2564,08;23,93
2562,15;24,11
2560,22;24,28
2558,29;24,43
2556,36;24,58
2554,43;24,72
2552,50;24,85
2550,57;24,97
2548,64;25,08
2546,71;25,19
2544,78;25,29
2542,85;25,39
2540,92;25,49
2538,99;25,58
2537,06;25,66
2535,13;25,74
2533,20;25,83
2531,27;25,92
2529,34;26,03
2527,41;26,14
2525,48;26,26
2523,55;26,38
2521,62;26,50
2519,69;26,62
2517,76;26,73
2515,83;26,84
2513,90;26,95
2511,97;27,06
2510,04;27,15
2508,11;27,25
2506,18;27,34
2504,25;27,42
2502,32;27,50
2500,39;27,58
2498,46;27,65
2496,53;27,72
2494,60;27,79
2492,67;27,84
2490,74;27,90
2488,81;27,95
2486,88;28,00
2484,95;28,04
2483,02;28,07
2481,09;28,11
2479,16;28,14
2477,23;28,17
2475,30;28,20
2473,37;28,22
2471,44;28,25
2469,51;28,27
2467,58;28,29
2465,65;28,30
2463,72;28,31
2461,79;28,32
2459,86;28,33
2457,93;28,34
2456,00;28,34
2454,07;28,34
2452,14;28,33
2450,21;28,33
2448,28;28,32
2446,35;28,31
2444,42;28,30
2442,49;28,28
2440,56;28,26
2438,63;28,24
2436,70;28,22
2434,77;28,19
2432,84;28,17
2430,91;28,14
2428,98;28,10
2427,05;28,07
2425,12;28,04
2423,19;28,02
2421,26;28,00
2419,33;27,98
2417,40;27,95
2415,47;27,92
2413,54;27,90
2411,61;27,88
2409,68;27,86
2407,75;27,84
2405,82;27,83
2403,89;27,82
2401,96;27,81
2400,03;27,81
2398,10;27,81
2396,17;27,81
2394,24;27,82
2392,31;27,83
2390,38;27,83
2388,45;27,83
2386,52;27,84
2384,59;27,85
2382,66;27,86
2380,73;27,89
2378,80;27,93
2376,87;27,98
2374,94;28,02
2373,01;28,07
2371,08;28,11
2369,15;28,13
2367,22;28,16
2365,29;28,17
2363,36;28,19
2361,43;28,20
2359,50;28,19
2357,57;27,26
2355,64;27,29
2353,71;27,30
2351,78;27,17
2349,85;26,95
2347,92;26,84
2345,99;26,86
2344,06;26,82
2342,13;26,71
2340,20;26,48
2338,27;26,05
2336,34;25,59
2334,41;25,52
2332,48;25,89
2330,55;26,30
2328,62;26,57
2326,69;26,73
2324,76;26,80
2322,83;26,81
2320,90;26,83
2318,97;26,90
2317,04;26,98
2315,11;26,97
2313,18;27,67
2311,25;27,63
2309,32;27,64
2307,39;27,65
2305,46;27,67
2303,53;27,69
2301,60;27,71
2299,67;27,71
2297,74;27,48
2295,81;27,49
2293,88;27,53
2291,95;27,58
2290,02;27,62
2288,09;27,65
2286,16;27,69
2284,23;27,72
2282,30;27,75
2280,37;27,78
2278,44;27,81
2276,51;27,83
2274,58;27,84
2272,65;27,85
2270,72;27,86
2268,79;27,87
2266,86;27,88
2264,93;27,89
2263,00;27,90
2261,07;27,91
2259,14;27,92
2257,21;27,92
2255,28;27,93
2253,35;27,94
2251,42;27,94
2249,49;27,94
2247,56;27,94
2245,63;27,94
2243,70;27,93
2241,77;27,93
2239,84;27,91
2237,91;27,90
2235,98;27,89
2234,05;27,87
2232,12;27,86
2230,19;27,84
2228,26;27,81
2226,33;27,79
2224,40;27,77
2222,47;27,75
2220,54;27,72
2218,61;27,70
2216,68;27,67
2214,75;27,64
2212,82;27,61
2210,89;27,58
2208,96;27,55
2207,03;27,52
2205,10;27,50
2203,17;27,47
2201,24;27,44
2199,31;27,40
2197,38;27,37
2195,45;27,34
2193,52;27,30
2191,59;27,27
2189,66;27,23
2187,73;27,20
2185,80;27,17
2183,87;27,14
2181,94;27,12
2180,01;27,10
2178,08;27,09
2176,15;27,08
2174,22;27,06
2172,29;27,05
2170,36;27,05
2168,43;27,04
2166,50;27,03
2164,57;27,02
2162,64;27,01
2160,71;27,00
2158,78;26,99
2156,85;26,98
2154,92;26,98
2152,99;26,98
2151,06;26,99
2149,13;27,01
2147,20;27,04
2145,27;27,08
2143,34;27,12
2141,41;27,17
2139,48;27,21
2137,55;27,24
2135,62;27,27
2133,69;27,30
2131,76;27,31
2129,83;27,33
2127,90;27,34
2125,97;27,36
2124,04;27,37
2122,11;27,38
2120,18;27,39
2118,25;27,40
2116,32;27,41
2114,39;27,43
2112,46;27,44
2110,53;27,46
2108,60;27,47
2106,67;27,49
2104,74;27,50
2102,81;27,52
2100,88;27,54
2098,95;27,55
2097,02;27,57
2095,09;27,59
2093,16;27,61
2091,23;27,63
2089,30;27,65
2087,37;27,67
2085,44;27,69
2083,51;27,71
2081,58;27,74
2079,65;27,76
2077,72;27,79
2075,79;27,81
2073,86;27,83
2071,93;27,85
2070,00;27,88
2068,07;27,90
2066,14;27,93
2064,21;27,95
2062,28;27,98
2060,35;28,00
2058,42;28,03
2056,49;28,05
2054,56;28,07
2052,63;28,09
2050,70;28,11
2048,77;28,13
2046,84;28,15
2044,91;28,17
2042,98;28,20
2041,05;28,23
2039,12;28,26
2037,19;28,30
2035,26;28,34
2033,33;28,39
2031,40;28,44
2029,47;28,51
2027,54;28,58
2025,61;28,67
2023,68;28,77
2021,75;28,89
2019,82;29,03
2017,89;29,20
2015,96;29,38
2014,03;29,55
2012,10;29,71
2010,17;29,86
2008,24;30,00
2006,31;30,14
2004,38;30,26
2002,45;30,37
2000,52;30,48
1998,59;30,58
1996,66;30,67
1994,73;30,76
1992,80;30,86
1990,87;30,96
1988,94;31,06
1987,01;31,15
1985,08;31,24
1983,15;31,32
1981,22;31,40
1979,29;31,48
1977,36;31,56
1975,43;31,64
1973,50;31,72
1971,57;31,78
1969,64;31,85
1967,71;31,93
1965,78;32,02
1963,85;32,09
1961,92;32,15
1959,99;32,21
1958,06;32,27
1956,13;32,33
1954,20;32,39
1952,27;32,45
1950,34;32,51
1948,41;32,55
1946,48;32,60
1944,55;32,64
1942,62;32,69
1940,69;32,73
1938,76;32,75
1936,83;32,79
1934,90;32,86
1932,97;32,94
1931,04;33,00
1929,11;33,06
1927,18;33,09
1925,25;33,14
1923,32;33,18
1921,39;33,23
1919,46;33,26
1917,53;33,31
1915,60;33,36
1913,67;33,38
1911,74;33,39
1909,81;33,44
1907,88;33,49
1905,95;33,53
1904,02;33,56
1902,09;33,60
1900,16;33,62
1898,23;33,65
1896,30;33,68
1894,37;33,70
1892,44;33,72
1890,51;33,75
1888,58;33,81
1886,65;33,84
1884,72;33,87
1882,79;33,90
1880,86;33,93
1878,93;33,96
1877,00;34,01
1875,07;34,02
1873,14;34,03
1871,21;34,04
1869,28;34,12
1867,35;34,23
1865,42;34,29
1863,49;34,30
1861,56;34,33
1859,63;34,35
1857,70;34,38
1855,77;34,40
1853,84;34,41
1851,91;34,40
1849,98;34,37
1848,05;34,30
1846,12;34,28
1844,19;34,36
1842,26;34,48
1840,33;34,47
1838,40;34,43
1836,47;34,41
1834,54;34,36
1832,61;34,30
1830,68;34,26
1828,75;34,28
1826,82;34,28
1824,89;34,24
1822,96;34,20
1821,03;34,14
1819,10;34,06
1817,17;33,99
1815,24;33,88
1813,31;33,78
1811,38;33,69
1809,45;33,60
1807,52;33,45
1805,59;33,27
1803,66;33,05
1801,73;32,87
1799,80;32,67
1797,87;32,44
1795,94;32,16
1794,01;31,96
1792,08;31,85
1790,15;31,72
1788,22;31,48
1786,29;31,22
1784,36;30,94
1782,43;30,66
1780,50;30,34
1778,57;29,97
1776,64;29,50
1774,71;29,05
1772,78;28,80
1770,85;28,61
1768,92;28,35
1766,99;27,94
1765,06;27,44
1763,13;26,80
1761,20;25,98
1759,27;24,95
1757,34;23,57
1755,41;21,72
1753,48;19,66
1751,55;17,37
1749,62;15,18
1747,69;13,52
1745,76;12,57
1743,83;12,24
1741,90;12,40
1739,97;12,87
1738,04;13,42
1736,11;13,86
1734,18;14,45
1732,25;15,06
1730,32;15,40
1728,39;15,63
1726,46;15,81
1724,53;15,94
1722,60;15,95
1720,67;15,76
1718,74;15,44
1716,81;15,14
1714,88;14,70
1712,95;14,12
1711,02;13,49
1709,09;12,92
1707,16;12,42
1705,23;11,95
1703,30;11,55
1701,37;11,25
1699,44;10,97
1697,51;10,80
1695,58;10,66
1693,65;10,52
1691,72;10,27
1689,79;9,92
1687,86;9,48
1685,93;9,12
1684,00;8,78
1682,07;8,42
1680,14;8,02
1678,21;7,61
1676,28;7,19
1674,35;6,76
1672,42;6,38
1670,49;6,03
1668,56;5,68
1666,63;5,37
1664,70;5,09
1662,77;4,81
1660,84;4,57
1658,91;4,33
1656,98;4,09
1655,05;3,87
1653,12;3,72
1651,19;3,62
1649,26;3,54
1647,33;3,44
1645,40;3,39
1643,47;3,33
1641,54;3,29
1639,61;3,24
1637,68;3,21
1635,75;3,21
1633,82;3,22
1631,89;3,24
1629,96;3,34
1628,03;3,53
1626,10;3,78
1624,17;4,03
1622,24;4,31
1620,31;4,52
1618,38;4,73
1616,45;5,07
1614,52;5,42
1612,59;5,69
1610,66;5,95
1608,73;6,23
1606,80;6,56
1604,87;6,96
1602,94;7,41
1601,01;7,86
1599,08;8,34
1597,15;8,87
1595,22;9,40
1593,29;9,91
1591,36;10,38
1589,43;10,83
1587,50;11,27
1585,57;11,68
1583,64;12,08
1581,71;12,42
1579,78;12,63
1577,85;12,84
1575,92;13,30
1573,99;13,76
1572,06;14,02
1570,13;14,29
1568,20;14,60
1566,27;14,85
1564,34;14,96
1562,41;14,94
1560,48;15,03
1558,55;15,51
1556,62;15,88
1554,69;16,11
1552,76;16,35
1550,83;16,57
1548,90;16,75
1546,97;16,87
1545,04;16,91
1543,11;16,89
1541,18;16,97
1539,25;17,33
1537,32;17,61
1535,39;17,68
1533,46;17,72
1531,53;17,70
1529,60;17,55
1527,67;17,31
1525,74;17,00
1523,81;16,55
1521,88;16,08
1519,95;15,54
1518,02;14,98
1516,09;14,49
1514,16;14,31
1512,23;14,34
1510,30;14,33
1508,37;14,23
1506,44;14,22
1504,51;14,14
1502,58;13,94
1500,65;13,57
1498,72;13,08
1496,79;12,52
1494,86;11,89
1492,93;11,15
1491,00;10,23
1489,07;9,21
1487,14;8,23
1485,21;7,28
1483,28;6,30
1481,35;5,21
1479,42;4,06
1477,49;2,91
1475,56;1,83
1473,63;0,95
1471,70;0,33
1469,77;0,07
1467,84;0,01
1465,91;0,00
1463,98;0,00
1462,05;0,00
1460,12;0,00
1458,19;0,00
1456,26;0,00
1454,33;0,01
1452,40;0,01
1450,47;0,04
1448,54;0,06
1446,61;0,12
1444,68;0,19
1442,75;0,32
1440,82;0,50
1438,89;0,74
1436,96;1,13
1435,03;1,75
1433,10;2,56
1431,17;3,67
1429,24;4,95
1427,31;6,12
1425,38;7,06
1423,45;7,82
1421,52;8,34
1419,59;8,84
1417,66;9,33
1415,73;9,69
1413,80;9,93
1411,87;10,12
1409,94;10,22
1408,01;10,27
1406,08;10,26
1404,15;10,21
1402,22;10,09
1400,29;9,90
1398,36;9,57
1396,43;9,04
1394,50;8,20
1392,57;7,15
1390,64;6,03
1388,71;4,78
1386,78;3,35
1384,85;2,06
1382,92;1,16
1380,99;0,56
1379,06;0,22
1377,13;0,13
1375,20;0,25
1373,27;0,58
1371,34;0,98
1369,41;1,16
1367,48;1,13
1365,55;1,27
1363,62;1,93
1361,69;2,99
1359,76;3,97
1357,83;4,65
1355,90;5,05
1353,97;5,27
1352,04;5,49
1350,11;5,78
1348,18;6,15
1346,25;6,49
1344,32;6,73
1342,39;6,88
1340,46;7,11
1338,53;7,55
1336,60;8,12
1334,67;8,69
1332,74;9,20
1330,81;9,64
1328,88;9,98
1326,95;10,23
1325,02;10,38
1323,09;10,44
1321,16;10,39
1319,23;10,26
1317,30;10,08
1315,37;9,91
1313,44;9,77
1311,51;9,67
1309,58;9,59
1307,65;9,53
1305,72;9,51
1303,79;9,54
1301,86;9,64
1299,93;9,82
1298,00;10,09
1296,07;10,40
1294,14;10,71
1292,21;11,00
1290,28;11,25
1288,35;11,46
1286,42;11,62
1284,49;11,74
1282,56;11,79
1280,63;11,78
1278,70;11,72
1276,77;11,66
1274,84;11,65
1272,91;11,69
1270,98;11,79
1269,05;11,92
1267,12;12,05
1265,19;12,17
1263,26;12,27
1261,33;12,36
1259,40;12,45
1257,47;12,53
1255,54;12,55
1253,61;12,53
1251,68;12,45
1249,75;12,35
1247,82;12,23
1245,89;12,12
1243,96;12,02
1242,03;11,93
1240,10;11,80
1238,17;11,59
1236,24;11,30
1234,31;11,04
1232,38;10,92
1230,45;10,97
1228,52;11,16
1226,59;11,42
1224,66;11,69
1222,73;11,95
1220,80;12,18
1218,87;12,38
1216,94;12,53
1215,01;12,65
1213,08;12,72
1211,15;12,76
1209,22;12,75
1207,29;12,72
1205,36;12,65
1203,43;12,58
1201,50;12,50
1199,57;12,43
1197,64;12,33
1195,71;12,23
1193,78;12,13
1191,85;12,07
1189,92;12,04
1187,99;12,04
1186,06;12,00
1184,13;11,84
1182,20;11,56
1180,27;11,24
1178,34;10,97
1176,41;10,70
1174,48;10,38
1172,55;10,01
1170,62;9,71
1168,69;9,61
1166,76;9,67
1164,83;9,77
1162,90;9,83
1160,97;9,84
1159,04;9,81
1157,11;9,80
1155,18;9,84
1153,25;9,96
1151,32;10,16
1149,39;10,43
1147,46;10,75
1145,53;11,10
1143,60;11,49
1141,67;11,90
1139,74;12,33
1137,81;12,75
1135,88;13,14
1133,95;13,47
1132,02;13,75
1130,09;13,95
1128,16;14,07
1126,23;14,13
1124,30;14,14
1122,37;14,14
1120,44;14,17
1118,51;14,24
1116,58;14,33
1114,65;14,42
1112,72;14,51
1110,79;14,62
1108,86;14,72
1106,93;14,79
1105,00;14,80
1103,07;14,76
1101,14;14,68
1099,21;14,54
1097,28;14,32
1095,35;14,01
1093,42;13,61
1091,49;13,17
1089,56;12,75
1087,63;12,42
1085,70;12,27
1083,77;12,29
1081,84;12,45
1079,91;12,72
1077,98;13,04
1076,05;13,39
1074,12;13,78
1072,19;14,16
1070,26;14,49
1068,33;14,74
1066,40;14,92
1064,47;15,07
1062,54;15,23
1060,61;15,41
1058,68;15,58
1056,75;15,68
1054,82;15,69
1052,89;15,60
1050,96;15,44
1049,03;15,25
1047,10;15,08
1045,17;14,95
1043,24;14,87
1041,31;14,84
1039,38;14,84
1037,45;14,88
1035,52;14,98
1033,59;15,15
1031,66;15,37
1029,73;15,63
1027,80;15,91
1025,87;16,15
1023,94;16,34
1022,01;16,49
1020,08;16,63
1018,15;16,75
1016,22;16,83
1014,29;16,84
1012,36;16,81
1010,43;16,80
1008,50;16,87
1006,57;16,99
1004,64;17,08
1002,71;17,11
1000,78;17,11
998,85;17,10
996,92;17,10
994,99;17,12
993,06;17,14
991,13;17,15
989,20;17,12
987,27;17,07
985,34;16,98
983,41;16,86
981,48;16,71
979,55;16,52
977,62;16,32
975,69;16,11
973,76;15,91
971,83;15,76
969,90;15,63
967,97;15,56
966,04;15,56
964,11;15,68
962,18;15,88
960,25;16,11
958,32;16,31
956,39;16,43
954,46;16,53
952,53;16,64
950,60;16,79
948,67;16,93
946,74;17,05
944,81;17,14
942,88;17,20
940,95;17,23
939,02;17,22
937,09;17,19
935,16;17,17
933,23;17,17
931,30;17,19
929,37;17,20
927,44;17,19
925,51;17,12
923,58;17,00
921,65;16,81
919,72;16,64
917,79;16,60
915,86;16,72
913,93;16,87
912,00;16,92
910,07;16,88
908,14;16,78
906,21;16,64
904,28;16,46
902,35;16,19
900,42;15,83
898,49;15,37
896,56;14,86
894,63;14,34
892,70;13,86
890,77;13,48
888,84;13,25
886,91;13,18
884,98;13,18
883,05;13,17
881,12;13,15
879,19;13,13
877,26;13,12
875,33;13,10
873,40;13,02
871,47;12,90
869,54;12,74
867,61;12,56
865,68;12,38
863,75;12,21
861,82;12,06
859,89;11,94
857,96;11,83
856,03;11,69
854,10;11,53
852,17;11,36
850,24;11,17
848,31;10,98
846,38;10,84
844,45;10,73
842,52;10,64
840,59;10,56
838,66;10,45
836,73;10,28
834,80;10,08
832,87;9,89
830,94;9,71
829,01;9,53
827,08;9,32
825,15;9,09
823,22;8,84
821,29;8,60
819,36;8,38
817,43;8,19
815,50;8,03
813,57;7,93
811,64;7,86
809,71;7,77
807,78;7,65
805,85;7,54
803,92;7,50
801,99;7,54
800,06;7,57
798,13;7,54
796,20;7,44
794,27;7,31
792,34;7,17
790,41;7,01
788,48;6,82
786,55;6,58
784,62;6,30
782,69;6,02
780,76;5,78
778,83;5,60
776,90;5,43
774,97;5,26
773,04;5,08
771,11;4,92
769,18;4,79
767,25;4,69
765,32;4,65
763,39;4,65
761,46;4,63
759,53;4,56
757,60;4,45
755,67;4,31
753,74;4,15
751,81;4,00
749,88;3,87
747,95;3,75
746,02;3,61
744,09;3,44
742,16;3,25
740,23;3,08
738,30;2,97
736,37;2,86
734,44;2,74
732,51;2,57
730,58;2,33
728,65;2,03
726,72;1,75
724,79;1,50
722,86;1,34
720,93;1,36
719,00;1,66
717,07;2,12
715,14;2,60
713,21;3,02
711,28;3,39
709,35;3,69
707,42;3,93
705,49;4,10
703,56;4,22
701,63;4,27
699,70;4,30
697,77;4,36
695,84;4,49
693,91;4,63
691,98;4,75
690,05;4,83
688,12;4,89
686,19;4,94
684,26;4,98
682,33;5,00
680,40;5,00
678,47;5,00
676,54;4,98
674,61;4,97
672,68;4,97
670,75;4,99
668,82;5,00
666,89;4,97
664,96;4,97
663,03;4,90
661,10;4,86
659,17;4,84
657,24;4,85
655,31;4,89
653,38;4,92
651,45;4,95
649,52;4,97
647,59;5,00
645,66;5,03
643,73;5,06
641,80;5,09
639,87;5,10
637,94;5,11
636,01;5,13
634,08;5,15
632,15;5,15
630,22;5,16
628,29;5,16
626,36;5,17
624,43;5,19
622,50;5,21
620,57;5,22
618,64;5,22
616,71;5,24
614,78;5,26
612,85;5,27
610,92;5,28
608,99;5,28
607,06;5,29
605,13;5,29
603,20;5,30
601,27;5,32
599,34;5,35
597,41;5,39
595,48;5,44
593,55;5,48
591,62;5,51
589,69;5,54
587,76;5,57
585,83;5,60
583,90;5,63
581,97;5,65
580,04;5,68
578,11;5,72
576,18;5,75
574,25;5,77
572,32;5,79
570,39;5,82
568,46;5,84
566,53;5,86
564,60;5,89
562,67;5,93
560,74;5,98
558,81;6,03
556,88;6,07
554,95;6,11
553,02;6,15
551,09;6,20
549,16;6,24
547,23;6,29
545,30;6,36
543,37;6,41
541,44;6,45
539,51;6,49
537,58;6,55
535,65;6,62
533,72;6,68
531,79;6,73
529,86;6,78
527,93;6,83
526,00;6,90
524,07;6,96
522,14;7,02
520,21;7,08
518,28;7,15
516,35;7,23
514,42;7,32
512,49;7,39
510,56;7,46
508,63;7,54
506,70;7,61
504,77;7,68
502,84;7,75
500,91;7,84
