Created as New Dataset;Amostra 397 por Laboratório data segunda-feira, setembro 23 2024
cm-1;%T
4000,00;16,08
3998,07;16,10
3996,14;16,12
3994,21;16,15
3992,28;16,18
3990,35;16,22
3988,42;16,25
3986,49;16,29
3984,56;16,32
3982,63;16,36
3980,70;16,39
3978,77;16,42
3976,84;16,45
3974,91;16,48
3972,98;16,50
3971,05;16,53
3969,12;16,55
3967,19;16,56
3965,26;16,58
3963,33;16,60
3961,40;16,62
3959,47;16,63
3957,54;16,64
3955,61;16,65
3953,68;16,66
3951,75;16,67
3949,82;16,68
3947,89;16,69
3945,96;16,70
3944,03;16,71
3942,10;16,71
3940,17;16,71
3938,24;16,71
3936,31;16,72
3934,38;16,73
3932,45;16,74
3930,52;16,75
3928,59;16,75
3926,66;16,75
3924,73;16,76
3922,80;16,76
3920,87;16,76
3918,94;16,77
3917,01;16,77
3915,08;16,76
3913,15;16,76
3911,22;16,75
3909,29;16,75
3907,36;16,76
3905,43;16,77
3903,50;16,79
3901,57;16,80
3899,64;16,80
3897,71;16,79
3895,78;16,78
3893,85;16,78
3891,92;16,77
3889,99;16,77
3888,06;16,78
3886,13;16,79
3884,20;16,79
3882,27;16,79
3880,34;16,79
3878,41;16,78
3876,48;16,78
3874,55;16,78
3872,62;16,78
3870,69;16,79
3868,76;16,79
3866,83;16,79
3864,90;16,80
3862,97;16,79
3861,04;16,77
3859,11;16,76
3857,18;16,75
3855,25;16,76
3853,32;16,77
3851,39;16,78
3849,46;16,77
3847,53;16,75
3845,60;16,72
3843,67;16,71
3841,74;16,71
3839,81;16,71
3837,88;16,71
3835,95;16,70
3834,02;16,69
3832,09;16,68
3830,16;16,66
3828,23;16,64
3826,30;16,62
3824,37;16,62
3822,44;16,62
3820,51;16,62
3818,58;16,62
3816,65;16,62
3814,72;16,61
3812,79;16,59
3810,86;16,58
3808,93;16,57
3807,00;16,57
3805,07;16,57
3803,14;16,58
3801,21;16,57
3799,28;16,57
3797,35;16,55
3795,42;16,53
3793,49;16,51
3791,56;16,48
3789,63;16,46
3787,70;16,45
3785,77;16,44
3783,84;16,43
3781,91;16,42
3779,98;16,41
3778,05;16,40
3776,12;16,39
3774,19;16,38
3772,26;16,37
3770,33;16,36
3768,40;16,35
3766,47;16,34
3764,54;16,32
3762,61;16,30
3760,68;16,28
3758,75;16,26
3756,82;16,25
3754,89;16,23
3752,96;16,23
3751,03;16,23
3749,10;16,22
3747,17;16,21
3745,24;16,19
3743,31;16,15
3741,38;16,11
3739,45;16,07
3737,52;16,04
3735,59;16,01
3733,66;15,97
3731,73;15,93
3729,80;15,88
3727,87;15,84
3725,94;15,79
3724,01;15,74
3722,08;15,70
3720,15;15,66
3718,22;15,61
3716,29;15,56
3714,36;15,51
3712,43;15,45
3710,50;15,39
3708,57;15,32
3706,64;15,24
3704,71;15,15
3702,78;15,05
3700,85;14,94
3698,92;14,83
3696,99;14,70
3695,06;14,58
3693,13;14,47
3691,20;14,36
3689,27;14,27
3687,34;14,20
3685,41;14,13
3683,48;14,04
3681,55;13,94
3679,62;13,85
3677,69;13,76
3675,76;13,67
3673,83;13,58
3671,90;13,49
3669,97;13,37
3668,04;13,23
3666,11;13,09
3664,18;12,95
3662,25;12,79
3660,32;12,63
3658,39;12,47
3656,46;12,30
3654,53;12,12
3652,60;11,94
3650,67;11,76
3648,74;11,59
3646,81;11,44
3644,88;11,30
3642,95;11,17
3641,02;11,05
3639,09;10,95
3637,16;10,87
3635,23;10,80
3633,30;10,74
3631,37;10,69
3629,44;10,63
3627,51;10,56
3625,58;10,48
3623,65;10,39
3621,72;10,29
3619,79;10,19
3617,86;10,10
3615,93;10,01
3614,00;9,92
3612,07;9,82
3610,14;9,73
3608,21;9,64
3606,28;9,55
3604,35;9,47
3602,42;9,40
3600,49;9,33
3598,56;9,27
3596,63;9,20
3594,70;9,14
3592,77;9,07
3590,84;8,99
3588,91;8,91
3586,98;8,82
3585,05;8,73
3583,12;8,64
3581,19;8,54
3579,26;8,44
3577,33;8,34
3575,40;8,25
3573,47;8,15
3571,54;8,06
3569,61;7,98
3567,68;7,89
3565,75;7,80
3563,82;7,72
3561,89;7,63
3559,96;7,54
3558,03;7,46
3556,10;7,37
3554,17;7,29
3552,24;7,21
3550,31;7,13
3548,38;7,06
3546,45;6,98
3544,52;6,90
3542,59;6,83
3540,66;6,76
3538,73;6,69
3536,80;6,62
3534,87;6,56
3532,94;6,50
3531,01;6,44
3529,08;6,39
3527,15;6,35
3525,22;6,31
3523,29;6,26
3521,36;6,23
3519,43;6,19
3517,50;6,16
3515,57;6,13
3513,64;6,10
3511,71;6,08
3509,78;6,05
3507,85;6,02
3505,92;6,00
3503,99;5,97
3502,06;5,95
3500,13;5,92
3498,20;5,89
3496,27;5,85
3494,34;5,82
3492,41;5,78
3490,48;5,74
3488,55;5,70
3486,62;5,65
3484,69;5,60
3482,76;5,55
3480,83;5,50
3478,90;5,46
3476,97;5,41
3475,04;5,37
3473,11;5,34
3471,18;5,32
3469,25;5,30
3467,32;5,29
3465,39;5,29
3463,46;5,29
3461,53;5,30
3459,60;5,31
3457,67;5,32
3455,74;5,33
3453,81;5,34
3451,88;5,35
3449,95;5,36
3448,02;5,37
3446,09;5,38
3444,16;5,39
3442,23;5,40
3440,30;5,40
3438,37;5,41
3436,44;5,41
3434,51;5,42
3432,58;5,43
3430,65;5,43
3428,72;5,44
3426,79;5,45
3424,86;5,46
3422,93;5,47
3421,00;5,48
3419,07;5,49
3417,14;5,51
3415,21;5,52
3413,28;5,53
3411,35;5,54
3409,42;5,56
3407,49;5,57
3405,56;5,59
3403,63;5,60
3401,70;5,62
3399,77;5,64
3397,84;5,67
3395,91;5,69
3393,98;5,71
3392,05;5,74
3390,12;5,77
3388,19;5,80
3386,26;5,83
3384,33;5,87
3382,40;5,90
3380,47;5,94
3378,54;5,98
3376,61;6,02
3374,68;6,06
3372,75;6,10
3370,82;6,14
3368,89;6,19
3366,96;6,24
3365,03;6,29
3363,10;6,34
3361,17;6,39
3359,24;6,44
3357,31;6,49
3355,38;6,55
3353,45;6,60
3351,52;6,65
3349,59;6,71
3347,66;6,77
3345,73;6,83
3343,80;6,88
3341,87;6,94
3339,94;7,00
3338,01;7,06
3336,08;7,12
3334,15;7,18
3332,22;7,24
3330,29;7,30
3328,36;7,35
3326,43;7,41
3324,50;7,47
3322,57;7,53
3320,64;7,59
3318,71;7,65
3316,78;7,70
3314,85;7,76
3312,92;7,81
3310,99;7,86
3309,06;7,92
3307,13;7,97
3305,20;8,02
3303,27;8,07
3301,34;8,12
3299,41;8,17
3297,48;8,22
3295,55;8,27
3293,62;8,32
3291,69;8,37
3289,76;8,41
3287,83;8,46
3285,90;8,51
3283,97;8,56
3282,04;8,61
3280,11;8,66
3278,18;8,70
3276,25;8,75
3274,32;8,80
3272,39;8,84
3270,46;8,89
3268,53;8,94
3266,60;8,98
3264,67;9,03
3262,74;9,08
3260,81;9,12
3258,88;9,17
3256,95;9,21
3255,02;9,26
3253,09;9,31
3251,16;9,35
3249,23;9,40
3247,30;9,45
3245,37;9,50
3243,44;9,54
3241,51;9,59
3239,58;9,64
3237,65;9,69
3235,72;9,74
3233,79;9,78
3231,86;9,83
3229,93;9,88
3228,00;9,93
3226,07;9,98
3224,14;10,02
3222,21;10,07
3220,28;10,11
3218,35;10,16
3216,42;10,20
3214,49;10,24
3212,56;10,28
3210,63;10,33
3208,70;10,37
3206,77;10,41
3204,84;10,46
3202,91;10,50
3200,98;10,55
3199,05;10,60
3197,12;10,65
3195,19;10,71
3193,26;10,77
3191,33;10,84
3189,40;10,91
3187,47;10,99
3185,54;11,07
3183,61;11,16
3181,68;11,25
3179,75;11,34
3177,82;11,44
3175,89;11,54
3173,96;11,65
3172,03;11,75
3170,10;11,87
3168,17;11,98
3166,24;12,10
3164,31;12,22
3162,38;12,34
3160,45;12,47
3158,52;12,59
3156,59;12,72
3154,66;12,85
3152,73;12,98
3150,80;13,11
3148,87;13,24
3146,94;13,38
3145,01;13,51
3143,08;13,64
3141,15;13,77
3139,22;13,90
3137,29;14,03
3135,36;14,15
3133,43;14,28
3131,50;14,40
3129,57;14,52
3127,64;14,64
3125,71;14,76
3123,78;14,87
3121,85;14,97
3119,92;15,07
3117,99;15,17
3116,06;15,27
3114,13;15,37
3112,20;15,45
3110,27;15,53
3108,34;15,60
3106,41;15,66
3104,48;15,72
3102,55;15,78
3100,62;15,83
3098,69;15,88
3096,76;15,92
3094,83;15,94
3092,90;15,96
3090,97;15,95
3089,04;15,94
3087,11;15,91
3085,18;15,86
3083,25;15,80
3081,32;15,72
3079,39;15,61
3077,46;15,49
3075,53;15,35
3073,60;15,20
3071,67;15,05
3069,74;14,90
3067,81;14,77
3065,88;14,64
3063,95;14,53
3062,02;14,44
3060,09;14,36
3058,16;14,28
3056,23;14,19
3054,30;14,08
3052,37;13,95
3050,44;13,79
3048,51;13,61
3046,58;13,41
3044,65;13,18
3042,72;12,94
3040,79;12,66
3038,86;12,36
3036,93;12,02
3035,00;11,64
3033,07;11,20
3031,14;10,71
3029,21;10,16
3027,28;9,55
3025,35;8,87
3023,42;8,12
3021,49;7,30
3019,56;6,42
3017,63;5,51
3015,70;4,63
3013,77;3,84
3011,84;3,18
3009,91;2,68
3007,98;2,31
3006,05;2,06
3004,12;1,90
3002,19;1,80
3000,26;1,70
2998,33;1,59
2996,40;1,45
2994,47;1,25
2992,54;1,03
2990,61;0,81
2988,68;0,60
2986,75;0,42
2984,82;0,27
2982,89;0,16
2980,96;0,09
2979,03;0,05
2977,10;0,03
2975,17;0,02
2973,24;0,02
2971,31;0,02
2969,38;0,02
2967,45;0,01
2965,52;0,01
2963,59;0,01
2961,66;0,01
2959,73;0,01
2957,80;0,01
2955,87;0,01
2953,94;0,01
2952,01;0,01
2950,08;0,00
2948,15;0,01
2946,22;0,00
2944,29;0,00
2942,36;0,00
2940,43;0,00
2938,50;0,00
2936,57;0,00
2934,64;0,00
2932,71;0,00
2930,78;0,00
2928,85;0,00
2926,92;0,01
2924,99;0,01
2923,06;0,00
2921,13;0,00
2919,20;0,00
2917,27;0,00
2915,34;0,00
2913,41;0,00
2911,48;0,00
2909,55;0,00
2907,62;0,00
2905,69;0,00
2903,76;0,00
2901,83;0,00
2899,90;0,00
2897,97;0,00
2896,04;0,00
2894,11;0,00
2892,18;0,00
2890,25;0,00
2888,32;0,00
2886,39;0,00
2884,46;0,00
2882,53;0,00
2880,60;0,00
2878,67;0,00
2876,74;0,00
2874,81;0,00
2872,88;0,00
2870,95;0,01
2869,02;0,01
2867,09;0,01
2865,16;0,01
2863,23;0,01
2861,30;0,01
2859,37;0,01
2857,44;0,01
2855,51;0,01
2853,58;0,01
2851,65;0,01
2849,72;0,01
2847,79;0,01
2845,86;0,01
2843,93;0,01
2842,00;0,01
2840,07;0,01
2838,14;0,02
2836,21;0,03
2834,28;0,07
2832,35;0,15
2830,42;0,28
2828,49;0,46
2826,56;0,71
2824,63;1,01
2822,70;1,35
2820,77;1,73
2818,84;2,14
2816,91;2,59
2814,98;3,07
2813,05;3,58
2811,12;4,10
2809,19;4,65
2807,26;5,22
2805,33;5,80
2803,40;6,39
2801,47;6,98
2799,54;7,57
2797,61;8,16
2795,68;8,76
2793,75;9,36
2791,82;9,96
2789,89;10,57
2787,96;11,20
2786,03;11,83
2784,10;12,46
2782,17;13,10
2780,24;13,73
2778,31;14,33
2776,38;14,90
2774,45;15,43
2772,52;15,91
2770,59;16,34
2768,66;16,72
2766,73;17,04
2764,80;17,31
2762,87;17,54
2760,94;17,72
2759,01;17,88
2757,08;18,03
2755,15;18,16
2753,22;18,27
2751,29;18,35
2749,36;18,39
2747,43;18,39
2745,50;18,35
2743,57;18,25
2741,64;18,11
2739,71;17,90
2737,78;17,63
2735,85;17,31
2733,92;16,95
2731,99;16,63
2730,06;16,43
2728,13;16,40
2726,20;16,52
2724,27;16,73
2722,34;16,98
2720,41;17,24
2718,48;17,53
2716,55;17,87
2714,62;18,25
2712,69;18,65
2710,76;19,03
2708,83;19,36
2706,90;19,62
2704,97;19,80
2703,04;19,92
2701,11;19,97
2699,18;19,97
2697,25;19,92
2695,32;19,82
2693,39;19,69
2691,46;19,53
2689,53;19,38
2687,60;19,25
2685,67;19,14
2683,74;19,07
2681,81;19,03
2679,88;19,01
2677,95;19,00
2676,02;19,01
2674,09;19,02
2672,16;19,06
2670,23;19,14
2668,30;19,28
2666,37;19,47
2664,44;19,71
2662,51;19,97
2660,58;20,24
2658,65;20,51
2656,72;20,77
2654,79;21,02
2652,86;21,24
2650,93;21,44
2649,00;21,63
2647,07;21,80
2645,14;21,95
2643,21;22,10
2641,28;22,23
2639,35;22,36
2637,42;22,49
2635,49;22,61
2633,56;22,73
2631,63;22,85
2629,70;22,98
2627,77;23,11
2625,84;23,24
2623,91;23,37
2621,98;23,50
2620,05;23,63
2618,12;23,75
2616,19;23,87
2614,26;24,00
2612,33;24,12
2610,40;24,25
2608,47;24,39
2606,54;24,53
2604,61;24,68
2602,68;24,84
2600,75;25,01
2598,82;25,18
2596,89;25,37
2594,96;25,56
2593,03;25,77
2591,10;25,97
2589,17;26,19
2587,24;26,41
2585,31;26,64
2583,38;26,88
2581,45;27,12
2579,52;27,36
2577,59;27,61
2575,66;27,86
2573,73;28,11
2571,80;28,36
2569,87;28,60
2567,94;28,83
2566,01;29,05
2564,08;29,25
2562,15;29,45
2560,22;29,63
2558,29;29,80
2556,36;29,96
2554,43;30,10
2552,50;30,24
2550,57;30,36
2548,64;30,48
2546,71;30,58
2544,78;30,68
2542,85;30,78
2540,92;30,87
2538,99;30,95
2537,06;31,03
2535,13;31,11
2533,20;31,20
2531,27;31,29
2529,34;31,40
2527,41;31,52
2525,48;31,66
2523,55;31,79
2521,62;31,93
2519,69;32,06
2517,76;32,19
2515,83;32,32
2513,90;32,44
2511,97;32,56
2510,04;32,68
2508,11;32,79
2506,18;32,90
2504,25;33,00
2502,32;33,09
2500,39;33,18
2498,46;33,26
2496,53;33,34
2494,60;33,41
2492,67;33,48
2490,74;33,54
2488,81;33,60
2486,88;33,65
2484,95;33,70
2483,02;33,75
2481,09;33,79
2479,16;33,84
2477,23;33,88
2475,30;33,91
2473,37;33,95
2471,44;33,97
2469,51;34,00
2467,58;34,02
2465,65;34,04
2463,72;34,05
2461,79;34,06
2459,86;34,07
2457,93;34,07
2456,00;34,07
2454,07;34,07
2452,14;34,06
2450,21;34,06
2448,28;34,05
2446,35;34,04
2444,42;34,03
2442,49;34,01
2440,56;33,99
2438,63;33,97
2436,70;33,95
2434,77;33,93
2432,84;33,90
2430,91;33,88
2428,98;33,85
2427,05;33,82
2425,12;33,79
2423,19;33,76
2421,26;33,73
2419,33;33,69
2417,40;33,65
2415,47;33,62
2413,54;33,58
2411,61;33,55
2409,68;33,53
2407,75;33,50
2405,82;33,49
2403,89;33,47
2401,96;33,46
2400,03;33,46
2398,10;33,46
2396,17;33,46
2394,24;33,46
2392,31;33,47
2390,38;33,47
2388,45;33,46
2386,52;33,44
2384,59;33,40
2382,66;33,34
2380,73;33,26
2378,80;33,16
2376,87;33,07
2374,94;33,02
2373,01;33,01
2371,08;33,01
2369,15;33,00
2367,22;32,98
2365,29;32,94
2363,36;32,88
2361,43;32,83
2359,50;32,78
2357,57;32,73
2355,64;32,69
2353,71;32,66
2351,78;32,64
2349,85;32,62
2347,92;32,60
2345,99;32,56
2344,06;32,52
2342,13;32,52
2340,20;32,45
2338,27;32,28
2336,34;32,14
2334,41;32,18
2332,48;32,36
2330,55;32,54
2328,62;32,66
2326,69;32,72
2324,76;32,72
2322,83;32,72
2320,90;32,76
2318,97;32,83
2317,04;32,90
2315,11;32,95
2313,18;32,98
2311,25;33,04
2309,32;33,11
2307,39;33,19
2305,46;33,27
2303,53;33,34
2301,60;33,40
2299,67;33,46
2297,74;33,52
2295,81;33,58
2293,88;33,63
2291,95;33,69
2290,02;33,74
2288,09;33,80
2286,16;33,85
2284,23;33,91
2282,30;33,96
2280,37;34,01
2278,44;34,06
2276,51;34,11
2274,58;34,16
2272,65;34,20
2270,72;34,24
2268,79;34,28
2266,86;34,32
2264,93;34,36
2263,00;34,40
2261,07;34,44
2259,14;34,48
2257,21;34,52
2255,28;34,55
2253,35;34,59
2251,42;34,61
2249,49;34,64
2247,56;34,67
2245,63;34,70
2243,70;34,73
2241,77;34,75
2239,84;34,77
2237,91;34,79
2235,98;34,81
2234,05;34,83
2232,12;34,84
2230,19;34,85
2228,26;34,86
2226,33;34,87
2224,40;34,88
2222,47;34,88
2220,54;34,89
2218,61;34,89
2216,68;34,90
2214,75;34,90
2212,82;34,89
2210,89;34,89
2208,96;34,89
2207,03;34,89
2205,10;34,88
2203,17;34,88
2201,24;34,87
2199,31;34,86
2197,38;34,85
2195,45;34,84
2193,52;34,82
2191,59;34,80
2189,66;34,79
2187,73;34,77
2185,80;34,76
2183,87;34,76
2181,94;34,76
2180,01;34,76
2178,08;34,77
2176,15;34,78
2174,22;34,78
2172,29;34,80
2170,36;34,80
2168,43;34,82
2166,50;34,83
2164,57;34,84
2162,64;34,86
2160,71;34,87
2158,78;34,89
2156,85;34,91
2154,92;34,93
2152,99;34,96
2151,06;35,00
2149,13;35,05
2147,20;35,13
2145,27;35,21
2143,34;35,30
2141,41;35,39
2139,48;35,48
2137,55;35,55
2135,62;35,61
2133,69;35,67
2131,76;35,72
2129,83;35,76
2127,90;35,80
2125,97;35,84
2124,04;35,88
2122,11;35,91
2120,18;35,94
2118,25;35,97
2116,32;35,99
2114,39;36,02
2112,46;36,05
2110,53;36,08
2108,60;36,10
2106,67;36,13
2104,74;36,16
2102,81;36,18
2100,88;36,21
2098,95;36,23
2097,02;36,25
2095,09;36,28
2093,16;36,30
2091,23;36,31
2089,30;36,33
2087,37;36,34
2085,44;36,36
2083,51;36,37
2081,58;36,39
2079,65;36,41
2077,72;36,42
2075,79;36,44
2073,86;36,45
2071,93;36,46
2070,00;36,47
2068,07;36,48
2066,14;36,48
2064,21;36,49
2062,28;36,48
2060,35;36,48
2058,42;36,47
2056,49;36,47
2054,56;36,47
2052,63;36,46
2050,70;36,45
2048,77;36,44
2046,84;36,43
2044,91;36,42
2042,98;36,41
2041,05;36,40
2039,12;36,39
2037,19;36,38
2035,26;36,38
2033,33;36,39
2031,40;36,40
2029,47;36,43
2027,54;36,47
2025,61;36,53
2023,68;36,61
2021,75;36,73
2019,82;36,86
2017,89;37,03
2015,96;37,21
2014,03;37,37
2012,10;37,52
2010,17;37,67
2008,24;37,79
2006,31;37,90
2004,38;37,99
2002,45;38,07
2000,52;38,14
1998,59;38,20
1996,66;38,27
1994,73;38,32
1992,80;38,39
1990,87;38,46
1988,94;38,49
1987,01;38,51
1985,08;38,55
1983,15;38,58
1981,22;38,61
1979,29;38,64
1977,36;38,67
1975,43;38,70
1973,50;38,72
1971,57;38,74
1969,64;38,77
1967,71;38,79
1965,78;38,82
1963,85;38,82
1961,92;38,82
1959,99;38,83
1958,06;38,83
1956,13;38,84
1954,20;38,85
1952,27;38,84
1950,34;38,84
1948,41;38,82
1946,48;38,84
1944,55;38,85
1942,62;38,87
1940,69;38,87
1938,76;38,82
1936,83;38,83
1934,90;38,86
1932,97;38,89
1931,04;38,92
1929,11;38,93
1927,18;38,95
1925,25;38,97
1923,32;39,01
1921,39;39,07
1919,46;39,03
1917,53;39,06
1915,60;39,02
1913,67;38,97
1911,74;38,96
1909,81;38,99
1907,88;38,99
1905,95;38,98
1904,02;38,97
1902,09;38,96
1900,16;38,95
1898,23;38,96
1896,30;38,94
1894,37;38,95
1892,44;38,93
1890,51;38,92
1888,58;38,95
1886,65;38,91
1884,72;38,86
1882,79;38,84
1880,86;38,81
1878,93;38,79
1877,00;38,76
1875,07;38,71
1873,14;38,71
1871,21;38,68
1869,28;38,76
1867,35;38,82
1865,42;38,75
1863,49;38,66
1861,56;38,61
1859,63;38,57
1857,70;38,53
1855,77;38,48
1853,84;38,42
1851,91;38,34
1849,98;38,27
1848,05;38,33
1846,12;38,27
1844,19;38,21
1842,26;38,13
1840,33;37,92
1838,40;37,78
1836,47;37,64
1834,54;37,49
1832,61;37,33
1830,68;37,22
1828,75;37,21
1826,82;37,02
1824,89;36,86
1822,96;36,66
1821,03;36,43
1819,10;36,20
1817,17;35,96
1815,24;35,71
1813,31;35,45
1811,38;35,21
1809,45;34,94
1807,52;34,57
1805,59;34,21
1803,66;33,81
1801,73;33,42
1799,80;32,99
1797,87;32,50
1795,94;32,04
1794,01;31,52
1792,08;30,99
1790,15;30,39
1788,22;29,71
1786,29;29,00
1784,36;28,28
1782,43;27,51
1780,50;26,67
1778,57;25,73
1776,64;24,82
1774,71;23,77
1772,78;22,54
1770,85;21,16
1768,92;19,49
1766,99;17,49
1765,06;15,29
1763,13;12,66
1761,20;9,50
1759,27;6,34
1757,34;3,56
1755,41;1,53
1753,48;0,52
1751,55;0,13
1749,62;0,03
1747,69;0,01
1745,76;0,01
1743,83;0,01
1741,90;0,01
1739,97;0,02
1738,04;0,08
1736,11;0,20
1734,18;0,53
1732,25;1,08
1730,32;1,77
1728,39;2,60
1726,46;3,53
1724,53;4,53
1722,60;5,60
1720,67;6,66
1718,74;7,74
1716,81;8,93
1714,88;9,91
1712,95;10,65
1711,02;11,23
1709,09;11,70
1707,16;12,10
1705,23;12,60
1703,30;13,09
1701,37;13,53
1699,44;14,43
1697,51;15,02
1695,58;15,52
1693,65;16,08
1691,72;16,43
1689,79;16,87
1687,86;17,32
1685,93;17,43
1684,00;17,74
1682,07;17,92
1680,14;17,91
1678,21;17,92
1676,28;17,85
1674,35;17,86
1672,42;17,80
1670,49;17,71
1668,56;17,58
1666,63;17,40
1664,70;17,16
1662,77;16,93
1660,84;16,63
1658,91;16,32
1656,98;16,31
1655,05;16,26
1653,12;16,29
1651,19;16,40
1649,26;16,55
1647,33;16,77
1645,40;17,02
1643,47;17,14
1641,54;17,20
1639,61;17,38
1637,68;17,52
1635,75;17,64
1633,82;17,65
1631,89;17,57
1629,96;17,67
1628,03;18,04
1626,10;18,51
1624,17;18,92
1622,24;19,35
1620,31;19,70
1618,38;19,80
1616,45;19,85
1614,52;19,91
1612,59;19,92
1610,66;20,01
1608,73;20,13
1606,80;20,28
1604,87;20,45
1602,94;20,64
1601,01;20,85
1599,08;21,14
1597,15;21,55
1595,22;22,00
1593,29;22,39
1591,36;22,73
1589,43;23,07
1587,50;23,38
1585,57;23,66
1583,64;23,87
1581,71;24,06
1579,78;24,40
1577,85;24,61
1575,92;24,78
1573,99;25,02
1572,06;25,17
1570,13;25,44
1568,20;25,74
1566,27;25,89
1564,34;26,21
1562,41;26,54
1560,48;26,59
1558,55;27,12
1556,62;27,26
1554,69;27,18
1552,76;27,28
1550,83;27,46
1548,90;27,71
1546,97;27,88
1545,04;28,11
1543,11;28,49
1541,18;28,81
1539,25;28,79
1537,32;28,64
1535,39;28,52
1533,46;28,55
1531,53;28,44
1529,60;28,20
1527,67;27,90
1525,74;27,60
1523,81;27,27
1521,88;26,62
1519,95;25,83
1518,02;25,12
1516,09;24,49
1514,16;24,03
1512,23;23,75
1510,30;23,76
1508,37;23,69
1506,44;23,34
1504,51;22,59
1502,58;21,87
1500,65;21,19
1498,72;20,48
1496,79;19,41
1494,86;18,07
1492,93;16,67
1491,00;15,05
1489,07;13,28
1487,14;11,53
1485,21;9,74
1483,28;7,87
1481,35;5,94
1479,42;4,19
1477,49;2,80
1475,56;1,71
1473,63;0,87
1471,70;0,29
1469,77;0,06
1467,84;0,01
1465,91;0,01
1463,98;0,01
1462,05;0,01
1460,12;0,01
1458,19;0,01
1456,26;0,00
1454,33;0,01
1452,40;0,01
1450,47;0,04
1448,54;0,07
1446,61;0,12
1444,68;0,19
1442,75;0,32
1440,82;0,48
1438,89;0,70
1436,96;1,05
1435,03;1,60
1433,10;2,31
1431,17;3,32
1429,24;4,55
1427,31;5,68
1425,38;6,49
1423,45;6,98
1421,52;7,13
1419,59;7,13
1417,66;7,27
1415,73;7,72
1413,80;8,44
1411,87;9,28
1409,94;9,95
1408,01;10,25
1406,08;10,16
1404,15;9,82
1402,22;9,44
1400,29;9,03
1398,36;8,46
1396,43;7,67
1394,50;6,64
1392,57;5,55
1390,64;4,54
1388,71;3,53
1386,78;2,52
1384,85;1,69
1382,92;1,06
1380,99;0,56
1379,06;0,25
1377,13;0,17
1375,20;0,30
1373,27;0,63
1371,34;1,01
1369,41;1,22
1367,48;1,23
1365,55;1,35
1363,62;1,82
1361,69;2,48
1359,76;3,01
1357,83;3,34
1355,90;3,53
1353,97;3,67
1352,04;3,84
1350,11;4,12
1348,18;4,51
1346,25;4,93
1344,32;5,29
1342,39;5,61
1340,46;6,01
1338,53;6,58
1336,60;7,19
1334,67;7,74
1332,74;8,19
1330,81;8,54
1328,88;8,72
1326,95;8,70
1325,02;8,51
1323,09;8,21
1321,16;7,88
1319,23;7,56
1317,30;7,30
1315,37;7,09
1313,44;6,93
1311,51;6,79
1309,58;6,67
1307,65;6,53
1305,72;6,40
1303,79;6,29
1301,86;6,24
1299,93;6,25
1298,00;6,29
1296,07;6,33
1294,14;6,35
1292,21;6,36
1290,28;6,35
1288,35;6,28
1286,42;6,15
1284,49;5,96
1282,56;5,74
1280,63;5,57
1278,70;5,45
1276,77;5,39
1274,84;5,36
1272,91;5,33
1270,98;5,25
1269,05;5,14
1267,12;5,01
1265,19;4,87
1263,26;4,72
1261,33;4,56
1259,40;4,39
1257,47;4,21
1255,54;4,02
1253,61;3,81
1251,68;3,55
1249,75;3,26
1247,82;2,97
1245,89;2,71
1243,96;2,51
1242,03;2,38
1240,10;2,30
1238,17;2,27
1236,24;2,28
1234,31;2,32
1232,38;2,38
1230,45;2,49
1228,52;2,62
1226,59;2,77
1224,66;2,90
1222,73;3,03
1220,80;3,13
1218,87;3,21
1216,94;3,25
1215,01;3,25
1213,08;3,23
1211,15;3,18
1209,22;3,12
1207,29;3,03
1205,36;2,92
1203,43;2,78
1201,50;2,63
1199,57;2,47
1197,64;2,28
1195,71;2,09
1193,78;1,89
1191,85;1,70
1189,92;1,53
1187,99;1,37
1186,06;1,23
1184,13;1,10
1182,20;0,98
1180,27;0,88
1178,34;0,79
1176,41;0,71
1174,48;0,64
1172,55;0,58
1170,62;0,53
1168,69;0,49
1166,76;0,46
1164,83;0,43
1162,90;0,42
1160,97;0,40
1159,04;0,40
1157,11;0,40
1155,18;0,42
1153,25;0,45
1151,32;0,49
1149,39;0,55
1147,46;0,62
1145,53;0,71
1143,60;0,81
1141,67;0,96
1139,74;1,16
1137,81;1,43
1135,88;1,78
1133,95;2,19
1132,02;2,60
1130,09;2,96
1128,16;3,18
1126,23;3,23
1124,30;3,15
1122,37;3,01
1120,44;2,93
1118,51;2,97
1116,58;3,12
1114,65;3,39
1112,72;3,71
1110,79;4,08
1108,86;4,44
1106,93;4,78
1105,00;5,03
1103,07;5,16
1101,14;5,16
1099,21;5,07
1097,28;4,94
1095,35;4,85
1093,42;4,84
1091,49;4,93
1089,56;5,10
1087,63;5,31
1085,70;5,55
1083,77;5,81
1081,84;6,13
1079,91;6,52
1077,98;6,97
1076,05;7,43
1074,12;7,84
1072,19;8,17
1070,26;8,39
1068,33;8,52
1066,40;8,63
1064,47;8,73
1062,54;8,86
1060,61;9,01
1058,68;9,19
1056,75;9,43
1054,82;9,80
1052,89;10,36
1050,96;11,10
1049,03;11,94
1047,10;12,74
1045,17;13,38
1043,24;13,77
1041,31;13,90
1039,38;13,82
1037,45;13,60
1035,52;13,30
1033,59;12,95
1031,66;12,56
1029,73;12,14
1027,80;11,71
1025,87;11,31
1023,94;10,96
1022,01;10,68
1020,08;10,48
1018,15;10,36
1016,22;10,34
1014,29;10,40
1012,36;10,54
1010,43;10,75
1008,50;11,00
1006,57;11,26
1004,64;11,42
1002,71;11,44
1000,78;11,39
998,85;11,36
996,92;11,42
994,99;11,63
993,06;11,97
991,13;12,39
989,20;12,81
987,27;13,26
985,34;13,78
983,41;14,40
981,48;15,06
979,55;15,64
977,62;16,03
975,69;16,20
973,76;16,15
971,83;15,92
969,90;15,61
967,97;15,37
966,04;15,39
964,11;15,85
962,18;16,68
960,25;17,61
958,32;18,40
956,39;18,95
954,46;19,31
952,53;19,54
950,60;19,67
948,67;19,71
946,74;19,65
944,81;19,56
942,88;19,47
940,95;19,38
939,02;19,30
937,09;19,23
935,16;19,22
933,23;19,25
931,30;19,34
929,37;19,45
927,44;19,58
925,51;19,67
923,58;19,67
921,65;19,58
919,72;19,48
917,79;19,53
915,86;19,74
913,93;20,00
912,00;20,22
910,07;20,37
908,14;20,50
906,21;20,65
904,28;20,79
902,35;20,88
900,42;20,86
898,49;20,74
896,56;20,54
894,63;20,27
892,70;19,97
890,77;19,73
888,84;19,70
886,91;19,96
884,98;20,35
883,05;20,70
881,12;20,94
879,19;21,08
877,26;21,15
875,33;21,16
873,40;21,15
871,47;21,14
869,54;21,15
867,61;21,18
865,68;21,22
863,75;21,28
861,82;21,34
859,89;21,37
857,96;21,32
856,03;21,22
854,10;21,11
852,17;21,04
850,24;21,06
848,31;21,13
846,38;21,21
844,45;21,31
842,52;21,46
840,59;21,63
838,66;21,76
836,73;21,82
834,80;21,85
832,87;21,85
830,94;21,83
829,01;21,78
827,08;21,70
825,15;21,57
823,22;21,41
821,29;21,23
819,36;21,04
817,43;20,85
815,50;20,76
813,57;20,84
811,64;21,03
809,71;21,17
807,78;21,23
805,85;21,27
803,92;21,34
801,99;21,45
800,06;21,48
798,13;21,34
796,20;21,03
794,27;20,60
792,34;20,10
790,41;19,48
788,48;18,71
786,55;17,86
784,62;17,00
782,69;16,30
780,76;15,86
778,83;15,63
776,90;15,56
774,97;15,61
773,04;15,62
771,11;15,55
769,18;15,48
767,25;15,46
765,32;15,49
763,39;15,49
761,46;15,42
759,53;15,24
757,60;14,96
755,67;14,58
753,74;14,12
751,81;13,62
749,88;13,12
747,95;12,58
746,02;11,96
744,09;11,29
742,16;10,61
740,23;9,94
738,30;9,29
736,37;8,64
734,44;7,94
732,51;7,17
730,58;6,32
728,65;5,40
726,72;4,50
724,79;3,70
722,86;3,26
720,93;3,43
719,00;4,38
717,07;5,81
715,14;7,33
713,21;8,74
711,28;10,05
709,35;11,23
707,42;12,27
705,49;13,12
703,56;13,79
701,63;14,29
699,70;14,70
697,77;15,21
695,84;15,86
693,91;16,46
691,98;16,94
690,05;17,34
688,12;17,74
686,19;18,20
684,26;18,69
682,33;19,14
680,40;19,52
678,47;19,87
676,54;20,18
674,61;20,48
672,68;20,77
670,75;20,98
668,82;21,16
666,89;21,60
664,96;21,84
663,03;21,93
661,10;22,03
659,17;22,15
657,24;22,28
655,31;22,43
653,38;22,58
651,45;22,71
649,52;22,83
647,59;22,96
645,66;23,08
643,73;23,19
641,80;23,29
639,87;23,36
637,94;23,41
636,01;23,46
634,08;23,51
632,15;23,54
630,22;23,52
628,29;23,48
626,36;23,42
624,43;23,34
622,50;23,22
620,57;23,07
618,64;22,89
616,71;22,74
614,78;22,65
612,85;22,56
610,92;22,47
608,99;22,39
607,06;22,34
605,13;22,30
603,20;22,28
601,27;22,31
599,34;22,37
597,41;22,44
595,48;22,51
593,55;22,56
591,62;22,58
589,69;22,57
587,76;22,57
585,83;22,60
583,90;22,65
581,97;22,73
580,04;22,86
578,11;23,05
576,18;23,28
574,25;23,54
572,32;23,80
570,39;24,07
568,46;24,33
566,53;24,58
564,60;24,83
562,67;25,07
560,74;25,29
558,81;25,50
556,88;25,68
554,95;25,83
553,02;25,94
551,09;26,06
549,16;26,19
547,23;26,31
545,30;26,44
543,37;26,56
541,44;26,66
539,51;26,76
537,58;26,85
535,65;26,95
533,72;27,06
531,79;27,17
529,86;27,26
527,93;27,37
526,00;27,50
524,07;27,60
522,14;27,69
520,21;27,83
518,28;27,98
516,35;28,11
514,42;28,22
512,49;28,34
510,56;28,48
508,63;28,59
506,70;28,71
504,77;28,83
502,84;28,96
500,91;29,06
