Created as New Dataset;Amostra 408 por Laboratório data segunda-feira, setembro 23 2024
cm-1;%T
4000,00;2,87
3998,07;2,87
3996,14;2,87
3994,21;2,87
3992,28;2,87
3990,35;2,88
3988,42;2,88
3986,49;2,88
3984,56;2,88
3982,63;2,88
3980,70;2,88
3978,77;2,88
3976,84;2,88
3974,91;2,88
3972,98;2,88
3971,05;2,88
3969,12;2,88
3967,19;2,88
3965,26;2,88
3963,33;2,87
3961,40;2,87
3959,47;2,87
3957,54;2,87
3955,61;2,86
3953,68;2,86
3951,75;2,86
3949,82;2,85
3947,89;2,85
3945,96;2,85
3944,03;2,84
3942,10;2,84
3940,17;2,83
3938,24;2,83
3936,31;2,82
3934,38;2,82
3932,45;2,81
3930,52;2,81
3928,59;2,81
3926,66;2,80
3924,73;2,79
3922,80;2,79
3920,87;2,78
3918,94;2,78
3917,01;2,77
3915,08;2,76
3913,15;2,76
3911,22;2,75
3909,29;2,74
3907,36;2,74
3905,43;2,73
3903,50;2,73
3901,57;2,72
3899,64;2,71
3897,71;2,71
3895,78;2,70
3893,85;2,69
3891,92;2,68
3889,99;2,67
3888,06;2,67
3886,13;2,66
3884,20;2,65
3882,27;2,65
3880,34;2,64
3878,41;2,63
3876,48;2,62
3874,55;2,62
3872,62;2,60
3870,69;2,60
3868,76;2,59
3866,83;2,58
3864,90;2,58
3862,97;2,57
3861,04;2,56
3859,11;2,55
3857,18;2,53
3855,25;2,52
3853,32;2,51
3851,39;2,51
3849,46;2,50
3847,53;2,49
3845,60;2,47
3843,67;2,46
3841,74;2,45
3839,81;2,44
3837,88;2,43
3835,95;2,42
3834,02;2,41
3832,09;2,40
3830,16;2,38
3828,23;2,37
3826,30;2,36
3824,37;2,34
3822,44;2,33
3820,51;2,32
3818,58;2,30
3816,65;2,30
3814,72;2,28
3812,79;2,27
3810,86;2,26
3808,93;2,24
3807,00;2,23
3805,07;2,22
3803,14;2,21
3801,21;2,20
3799,28;2,18
3797,35;2,17
3795,42;2,15
3793,49;2,13
3791,56;2,12
3789,63;2,10
3787,70;2,09
3785,77;2,07
3783,84;2,06
3781,91;2,04
3779,98;2,02
3778,05;2,01
3776,12;2,00
3774,19;1,98
3772,26;1,96
3770,33;1,95
3768,40;1,93
3766,47;1,91
3764,54;1,90
3762,61;1,88
3760,68;1,86
3758,75;1,84
3756,82;1,83
3754,89;1,81
3752,96;1,79
3751,03;1,77
3749,10;1,76
3747,17;1,74
3745,24;1,71
3743,31;1,69
3741,38;1,67
3739,45;1,65
3737,52;1,62
3735,59;1,60
3733,66;1,58
3731,73;1,56
3729,80;1,53
3727,87;1,51
3725,94;1,48
3724,01;1,46
3722,08;1,43
3720,15;1,40
3718,22;1,38
3716,29;1,35
3714,36;1,33
3712,43;1,30
3710,50;1,27
3708,57;1,24
3706,64;1,21
3704,71;1,17
3702,78;1,14
3700,85;1,11
3698,92;1,07
3696,99;1,04
3695,06;1,00
3693,13;0,97
3691,20;0,94
3689,27;0,90
3687,34;0,87
3685,41;0,84
3683,48;0,81
3681,55;0,78
3679,62;0,75
3677,69;0,73
3675,76;0,70
3673,83;0,66
3671,90;0,64
3669,97;0,61
3668,04;0,58
3666,11;0,55
3664,18;0,53
3662,25;0,50
3660,32;0,48
3658,39;0,46
3656,46;0,45
3654,53;0,43
3652,60;0,41
3650,67;0,40
3648,74;0,39
3646,81;0,37
3644,88;0,35
3642,95;0,34
3641,02;0,33
3639,09;0,31
3637,16;0,30
3635,23;0,29
3633,30;0,29
3631,37;0,28
3629,44;0,27
3627,51;0,26
3625,58;0,25
3623,65;0,24
3621,72;0,23
3619,79;0,23
3617,86;0,22
3615,93;0,22
3614,00;0,21
3612,07;0,21
3610,14;0,20
3608,21;0,20
3606,28;0,19
3604,35;0,18
3602,42;0,18
3600,49;0,17
3598,56;0,17
3596,63;0,17
3594,70;0,16
3592,77;0,16
3590,84;0,15
3588,91;0,15
3586,98;0,14
3585,05;0,13
3583,12;0,13
3581,19;0,13
3579,26;0,13
3577,33;0,13
3575,40;0,12
3573,47;0,12
3571,54;0,12
3569,61;0,11
3567,68;0,11
3565,75;0,11
3563,82;0,10
3561,89;0,10
3559,96;0,10
3558,03;0,09
3556,10;0,09
3554,17;0,09
3552,24;0,09
3550,31;0,08
3548,38;0,08
3546,45;0,07
3544,52;0,07
3542,59;0,07
3540,66;0,07
3538,73;0,07
3536,80;0,06
3534,87;0,06
3532,94;0,06
3531,01;0,06
3529,08;0,05
3527,15;0,05
3525,22;0,04
3523,29;0,04
3521,36;0,04
3519,43;0,04
3517,50;0,03
3515,57;0,03
3513,64;0,03
3511,71;0,03
3509,78;0,03
3507,85;0,03
3505,92;0,03
3503,99;0,03
3502,06;0,03
3500,13;0,03
3498,20;0,03
3496,27;0,03
3494,34;0,02
3492,41;0,02
3490,48;0,02
3488,55;0,02
3486,62;0,02
3484,69;0,02
3482,76;0,02
3480,83;0,02
3478,90;0,02
3476,97;0,02
3475,04;0,02
3473,11;0,02
3471,18;0,02
3469,25;0,02
3467,32;0,02
3465,39;0,02
3463,46;0,02
3461,53;0,02
3459,60;0,02
3457,67;0,02
3455,74;0,02
3453,81;0,02
3451,88;0,02
3449,95;0,02
3448,02;0,02
3446,09;0,02
3444,16;0,02
3442,23;0,02
3440,30;0,02
3438,37;0,02
3436,44;0,02
3434,51;0,02
3432,58;0,02
3430,65;0,02
3428,72;0,02
3426,79;0,02
3424,86;0,02
3422,93;0,02
3421,00;0,02
3419,07;0,02
3417,14;0,02
3415,21;0,02
3413,28;0,02
3411,35;0,02
3409,42;0,02
3407,49;0,02
3405,56;0,02
3403,63;0,02
3401,70;0,02
3399,77;0,02
3397,84;0,02
3395,91;0,02
3393,98;0,02
3392,05;0,02
3390,12;0,02
3388,19;0,02
3386,26;0,03
3384,33;0,02
3382,40;0,02
3380,47;0,02
3378,54;0,02
3376,61;0,02
3374,68;0,02
3372,75;0,02
3370,82;0,02
3368,89;0,02
3366,96;0,02
3365,03;0,02
3363,10;0,03
3361,17;0,02
3359,24;0,03
3357,31;0,03
3355,38;0,03
3353,45;0,03
3351,52;0,03
3349,59;0,03
3347,66;0,03
3345,73;0,03
3343,80;0,03
3341,87;0,03
3339,94;0,03
3338,01;0,03
3336,08;0,03
3334,15;0,03
3332,22;0,03
3330,29;0,04
3328,36;0,04
3326,43;0,04
3324,50;0,04
3322,57;0,04
3320,64;0,04
3318,71;0,04
3316,78;0,04
3314,85;0,04
3312,92;0,04
3310,99;0,04
3309,06;0,04
3307,13;0,04
3305,20;0,04
3303,27;0,05
3301,34;0,05
3299,41;0,05
3297,48;0,05
3295,55;0,05
3293,62;0,05
3291,69;0,05
3289,76;0,05
3287,83;0,05
3285,90;0,05
3283,97;0,05
3282,04;0,06
3280,11;0,06
3278,18;0,06
3276,25;0,06
3274,32;0,06
3272,39;0,06
3270,46;0,07
3268,53;0,07
3266,60;0,07
3264,67;0,07
3262,74;0,07
3260,81;0,07
3258,88;0,07
3256,95;0,08
3255,02;0,08
3253,09;0,08
3251,16;0,08
3249,23;0,08
3247,30;0,08
3245,37;0,09
3243,44;0,09
3241,51;0,09
3239,58;0,09
3237,65;0,10
3235,72;0,10
3233,79;0,10
3231,86;0,10
3229,93;0,11
3228,00;0,11
3226,07;0,11
3224,14;0,12
3222,21;0,12
3220,28;0,13
3218,35;0,13
3216,42;0,13
3214,49;0,14
3212,56;0,14
3210,63;0,15
3208,70;0,15
3206,77;0,16
3204,84;0,17
3202,91;0,17
3200,98;0,18
3199,05;0,19
3197,12;0,19
3195,19;0,20
3193,26;0,21
3191,33;0,22
3189,40;0,23
3187,47;0,24
3185,54;0,25
3183,61;0,26
3181,68;0,27
3179,75;0,28
3177,82;0,29
3175,89;0,30
3173,96;0,32
3172,03;0,33
3170,10;0,35
3168,17;0,36
3166,24;0,38
3164,31;0,40
3162,38;0,42
3160,45;0,44
3158,52;0,46
3156,59;0,48
3154,66;0,50
3152,73;0,52
3150,80;0,54
3148,87;0,57
3146,94;0,60
3145,01;0,62
3143,08;0,65
3141,15;0,68
3139,22;0,71
3137,29;0,74
3135,36;0,77
3133,43;0,81
3131,50;0,84
3129,57;0,88
3127,64;0,91
3125,71;0,95
3123,78;0,99
3121,85;1,03
3119,92;1,07
3117,99;1,11
3116,06;1,15
3114,13;1,20
3112,20;1,25
3110,27;1,29
3108,34;1,34
3106,41;1,39
3104,48;1,44
3102,55;1,48
3100,62;1,53
3098,69;1,58
3096,76;1,64
3094,83;1,69
3092,90;1,74
3090,97;1,78
3089,04;1,83
3087,11;1,88
3085,18;1,93
3083,25;1,97
3081,32;2,02
3079,39;2,06
3077,46;2,10
3075,53;2,14
3073,60;2,18
3071,67;2,22
3069,74;2,25
3067,81;2,28
3065,88;2,32
3063,95;2,36
3062,02;2,41
3060,09;2,45
3058,16;2,49
3056,23;2,53
3054,30;2,57
3052,37;2,61
3050,44;2,63
3048,51;2,66
3046,58;2,68
3044,65;2,69
3042,72;2,69
3040,79;2,69
3038,86;2,68
3036,93;2,66
3035,00;2,63
3033,07;2,57
3031,14;2,50
3029,21;2,41
3027,28;2,29
3025,35;2,14
3023,42;1,95
3021,49;1,74
3019,56;1,50
3017,63;1,26
3015,70;1,03
3013,77;0,85
3011,84;0,71
3009,91;0,63
3007,98;0,60
3006,05;0,60
3004,12;0,62
3002,19;0,64
3000,26;0,65
2998,33;0,63
2996,40;0,59
2994,47;0,53
2992,54;0,46
2990,61;0,38
2988,68;0,30
2986,75;0,23
2984,82;0,16
2982,89;0,11
2980,96;0,06
2979,03;0,04
2977,10;0,02
2975,17;0,02
2973,24;0,01
2971,31;0,01
2969,38;0,01
2967,45;0,01
2965,52;0,01
2963,59;0,01
2961,66;0,01
2959,73;0,01
2957,80;0,01
2955,87;0,01
2953,94;0,00
2952,01;0,00
2950,08;0,00
2948,15;0,00
2946,22;0,00
2944,29;0,00
2942,36;0,00
2940,43;0,00
2938,50;0,00
2936,57;0,00
2934,64;0,00
2932,71;0,00
2930,78;0,00
2928,85;0,00
2926,92;0,00
2924,99;0,00
2923,06;0,00
2921,13;0,00
2919,20;0,00
2917,27;0,00
2915,34;0,00
2913,41;0,00
2911,48;0,00
2909,55;0,00
2907,62;0,00
2905,69;0,00
2903,76;0,00
2901,83;0,00
2899,90;0,00
2897,97;0,00
2896,04;0,00
2894,11;0,00
2892,18;0,00
2890,25;0,00
2888,32;0,00
2886,39;0,00
2884,46;0,00
2882,53;0,00
2880,60;0,00
2878,67;0,00
2876,74;0,00
2874,81;0,00
2872,88;0,00
2870,95;0,00
2869,02;0,00
2867,09;0,00
2865,16;0,00
2863,23;0,00
2861,30;0,01
2859,37;0,01
2857,44;0,01
2855,51;0,01
2853,58;0,01
2851,65;0,01
2849,72;0,01
2847,79;0,01
2845,86;0,01
2843,93;0,01
2842,00;0,01
2840,07;0,01
2838,14;0,01
2836,21;0,03
2834,28;0,07
2832,35;0,14
2830,42;0,24
2828,49;0,39
2826,56;0,56
2824,63;0,77
2822,70;1,00
2820,77;1,25
2818,84;1,52
2816,91;1,81
2814,98;2,12
2813,05;2,44
2811,12;2,77
2809,19;3,12
2807,26;3,47
2805,33;3,83
2803,40;4,20
2801,47;4,56
2799,54;4,93
2797,61;5,29
2795,68;5,65
2793,75;6,01
2791,82;6,38
2789,89;6,74
2787,96;7,12
2786,03;7,50
2784,10;7,88
2782,17;8,27
2780,24;8,65
2778,31;9,01
2776,38;9,35
2774,45;9,67
2772,52;9,97
2770,59;10,23
2768,66;10,47
2766,73;10,68
2764,80;10,86
2762,87;11,01
2760,94;11,14
2759,01;11,25
2757,08;11,36
2755,15;11,45
2753,22;11,54
2751,29;11,60
2749,36;11,63
2747,43;11,65
2745,50;11,63
2743,57;11,59
2741,64;11,52
2739,71;11,41
2737,78;11,27
2735,85;11,09
2733,92;10,89
2731,99;10,72
2730,06;10,61
2728,13;10,60
2726,20;10,68
2724,27;10,80
2722,34;10,94
2720,41;11,09
2718,48;11,26
2716,55;11,46
2714,62;11,68
2712,69;11,92
2710,76;12,14
2708,83;12,34
2706,90;12,50
2704,97;12,61
2703,04;12,69
2701,11;12,74
2699,18;12,75
2697,25;12,74
2695,32;12,69
2693,39;12,63
2691,46;12,56
2689,53;12,49
2687,60;12,43
2685,67;12,38
2683,74;12,35
2681,81;12,34
2679,88;12,34
2677,95;12,35
2676,02;12,36
2674,09;12,38
2672,16;12,40
2670,23;12,45
2668,30;12,53
2666,37;12,64
2664,44;12,77
2662,51;12,93
2660,58;13,09
2658,65;13,25
2656,72;13,41
2654,79;13,55
2652,86;13,69
2650,93;13,81
2649,00;13,92
2647,07;14,02
2645,14;14,12
2643,21;14,21
2641,28;14,29
2639,35;14,37
2637,42;14,45
2635,49;14,52
2633,56;14,59
2631,63;14,67
2629,70;14,74
2627,77;14,82
2625,84;14,90
2623,91;14,99
2621,98;15,07
2620,05;15,14
2618,12;15,22
2616,19;15,30
2614,26;15,37
2612,33;15,45
2610,40;15,53
2608,47;15,61
2606,54;15,70
2604,61;15,79
2602,68;15,88
2600,75;15,98
2598,82;16,08
2596,89;16,19
2594,96;16,30
2593,03;16,42
2591,10;16,54
2589,17;16,66
2587,24;16,79
2585,31;16,92
2583,38;17,06
2581,45;17,20
2579,52;17,33
2577,59;17,47
2575,66;17,61
2573,73;17,76
2571,80;17,89
2569,87;18,03
2567,94;18,16
2566,01;18,29
2564,08;18,41
2562,15;18,52
2560,22;18,63
2558,29;18,72
2556,36;18,82
2554,43;18,90
2552,50;18,98
2550,57;19,06
2548,64;19,13
2546,71;19,20
2544,78;19,26
2542,85;19,32
2540,92;19,38
2538,99;19,43
2537,06;19,49
2535,13;19,54
2533,20;19,59
2531,27;19,65
2529,34;19,71
2527,41;19,79
2525,48;19,87
2523,55;19,95
2521,62;20,04
2519,69;20,12
2517,76;20,20
2515,83;20,28
2513,90;20,36
2511,97;20,44
2510,04;20,51
2508,11;20,58
2506,18;20,64
2504,25;20,70
2502,32;20,76
2500,39;20,82
2498,46;20,87
2496,53;20,92
2494,60;20,96
2492,67;21,01
2490,74;21,05
2488,81;21,09
2486,88;21,12
2484,95;21,15
2483,02;21,18
2481,09;21,21
2479,16;21,24
2477,23;21,26
2475,30;21,29
2473,37;21,31
2471,44;21,33
2469,51;21,34
2467,58;21,36
2465,65;21,37
2463,72;21,38
2461,79;21,39
2459,86;21,40
2457,93;21,40
2456,00;21,40
2454,07;21,41
2452,14;21,41
2450,21;21,41
2448,28;21,40
2446,35;21,40
2444,42;21,39
2442,49;21,38
2440,56;21,37
2438,63;21,36
2436,70;21,34
2434,77;21,33
2432,84;21,31
2430,91;21,28
2428,98;21,26
2427,05;21,23
2425,12;21,21
2423,19;21,20
2421,26;21,19
2419,33;21,17
2417,40;21,15
2415,47;21,12
2413,54;21,11
2411,61;21,09
2409,68;21,07
2407,75;21,05
2405,82;21,04
2403,89;21,03
2401,96;21,02
2400,03;21,02
2398,10;21,01
2396,17;21,01
2394,24;21,01
2392,31;21,00
2390,38;21,00
2388,45;20,97
2386,52;20,94
2384,59;20,87
2382,66;20,79
2380,73;20,68
2378,80;20,58
2376,87;20,50
2374,94;20,44
2373,01;20,40
2371,08;20,37
2369,15;20,34
2367,22;20,29
2365,29;20,24
2363,36;20,17
2361,43;20,09
2359,50;20,00
2357,57;19,93
2355,64;19,86
2353,71;19,76
2351,78;19,59
2349,85;19,64
2347,92;19,92
2345,99;19,94
2344,06;19,68
2342,13;19,47
2340,20;19,17
2338,27;18,72
2336,34;18,34
2334,41;18,40
2332,48;18,80
2330,55;19,16
2328,62;19,37
2326,69;19,47
2324,76;19,49
2322,83;19,49
2320,90;19,54
2318,97;19,62
2317,04;19,71
2315,11;19,78
2313,18;19,82
2311,25;19,88
2309,32;19,96
2307,39;20,04
2305,46;20,12
2303,53;20,19
2301,60;20,25
2299,67;20,31
2297,74;20,36
2295,81;20,40
2293,88;20,44
2291,95;20,47
2290,02;20,50
2288,09;20,53
2286,16;20,55
2284,23;20,57
2282,30;20,59
2280,37;20,61
2278,44;20,63
2276,51;20,64
2274,58;20,65
2272,65;20,65
2270,72;20,65
2268,79;20,66
2266,86;20,67
2264,93;20,68
2263,00;20,68
2261,07;20,69
2259,14;20,70
2257,21;20,71
2255,28;20,71
2253,35;20,71
2251,42;20,71
2249,49;20,71
2247,56;20,71
2245,63;20,71
2243,70;20,71
2241,77;20,71
2239,84;20,70
2237,91;20,69
2235,98;20,69
2234,05;20,68
2232,12;20,67
2230,19;20,66
2228,26;20,64
2226,33;20,63
2224,40;20,62
2222,47;20,60
2220,54;20,59
2218,61;20,57
2216,68;20,56
2214,75;20,54
2212,82;20,52
2210,89;20,50
2208,96;20,49
2207,03;20,47
2205,10;20,45
2203,17;20,43
2201,24;20,41
2199,31;20,39
2197,38;20,37
2195,45;20,35
2193,52;20,33
2191,59;20,31
2189,66;20,29
2187,73;20,27
2185,80;20,26
2183,87;20,24
2181,94;20,24
2180,01;20,23
2178,08;20,22
2176,15;20,23
2174,22;20,23
2172,29;20,23
2170,36;20,23
2168,43;20,23
2166,50;20,23
2164,57;20,23
2162,64;20,23
2160,71;20,24
2158,78;20,24
2156,85;20,25
2154,92;20,26
2152,99;20,28
2151,06;20,30
2149,13;20,34
2147,20;20,38
2145,27;20,43
2143,34;20,48
2141,41;20,53
2139,48;20,58
2137,55;20,62
2135,62;20,66
2133,69;20,70
2131,76;20,73
2129,83;20,76
2127,90;20,79
2125,97;20,82
2124,04;20,85
2122,11;20,88
2120,18;20,91
2118,25;20,94
2116,32;20,97
2114,39;21,00
2112,46;21,03
2110,53;21,06
2108,60;21,09
2106,67;21,12
2104,74;21,16
2102,81;21,19
2100,88;21,23
2098,95;21,26
2097,02;21,30
2095,09;21,34
2093,16;21,38
2091,23;21,41
2089,30;21,45
2087,37;21,48
2085,44;21,51
2083,51;21,55
2081,58;21,59
2079,65;21,62
2077,72;21,66
2075,79;21,69
2073,86;21,73
2071,93;21,77
2070,00;21,83
2068,07;21,87
2066,14;21,90
2064,21;21,93
2062,28;21,96
2060,35;21,99
2058,42;22,02
2056,49;22,05
2054,56;22,09
2052,63;22,13
2050,70;22,16
2048,77;22,20
2046,84;22,24
2044,91;22,29
2042,98;22,31
2041,05;22,34
2039,12;22,37
2037,19;22,41
2035,26;22,45
2033,33;22,50
2031,40;22,55
2029,47;22,61
2027,54;22,69
2025,61;22,77
2023,68;22,87
2021,75;23,00
2019,82;23,13
2017,89;23,25
2015,96;23,37
2014,03;23,50
2012,10;23,63
2010,17;23,75
2008,24;23,86
2006,31;23,96
2004,38;24,06
2002,45;24,14
2000,52;24,23
1998,59;24,32
1996,66;24,45
1994,73;24,54
1992,80;24,60
1990,87;24,66
1988,94;24,70
1987,01;24,74
1985,08;24,80
1983,15;24,86
1981,22;24,92
1979,29;24,97
1977,36;25,03
1975,43;25,08
1973,50;25,14
1971,57;25,22
1969,64;25,28
1967,71;25,31
1965,78;25,35
1963,85;25,37
1961,92;25,40
1959,99;25,43
1958,06;25,46
1956,13;25,49
1954,20;25,52
1952,27;25,54
1950,34;25,55
1948,41;25,60
1946,48;25,71
1944,55;25,73
1942,62;25,71
1940,69;25,70
1938,76;25,67
1936,83;25,69
1934,90;25,72
1932,97;25,76
1931,04;25,79
1929,11;25,83
1927,18;25,91
1925,25;25,95
1923,32;26,03
1921,39;26,13
1919,46;26,07
1917,53;26,06
1915,60;26,03
1913,67;26,02
1911,74;26,03
1909,81;26,06
1907,88;26,06
1905,95;26,07
1904,02;26,06
1902,09;26,07
1900,16;26,08
1898,23;26,09
1896,30;26,09
1894,37;26,15
1892,44;26,16
1890,51;26,12
1888,58;26,11
1886,65;26,06
1884,72;26,03
1882,79;26,02
1880,86;26,00
1878,93;25,98
1877,00;25,98
1875,07;26,02
1873,14;26,13
1871,21;26,09
1869,28;26,12
1867,35;26,15
1865,42;26,09
1863,49;26,02
1861,56;25,97
1859,63;25,92
1857,70;25,89
1855,77;25,85
1853,84;25,84
1851,91;25,84
1849,98;25,86
1848,05;25,97
1846,12;25,91
1844,19;25,81
1842,26;25,68
1840,33;25,48
1838,40;25,38
1836,47;25,31
1834,54;25,24
1832,61;25,10
1830,68;25,09
1828,75;25,19
1826,82;24,97
1824,89;24,74
1822,96;24,55
1821,03;24,39
1819,10;24,20
1817,17;24,01
1815,24;23,83
1813,31;23,65
1811,38;23,49
1809,45;23,29
1807,52;23,07
1805,59;22,95
1803,66;22,65
1801,73;22,29
1799,80;21,98
1797,87;21,67
1795,94;21,41
1794,01;21,12
1792,08;20,72
1790,15;20,27
1788,22;19,83
1786,29;19,28
1784,36;18,73
1782,43;18,15
1780,50;17,53
1778,57;16,82
1776,64;16,06
1774,71;15,26
1772,78;14,50
1770,85;13,43
1768,92;11,92
1766,99;10,18
1765,06;8,33
1763,13;6,24
1761,20;4,08
1759,27;2,33
1757,34;1,16
1755,41;0,46
1753,48;0,18
1751,55;0,06
1749,62;0,03
1747,69;0,01
1745,76;0,03
1743,83;0,05
1741,90;0,13
1739,97;0,30
1738,04;0,60
1736,11;0,96
1734,18;1,54
1732,25;2,16
1730,32;2,63
1728,39;3,04
1726,46;3,39
1724,53;3,63
1722,60;3,79
1720,67;3,80
1718,74;3,68
1716,81;3,41
1714,88;3,07
1712,95;2,81
1711,02;2,71
1709,09;2,80
1707,16;3,04
1705,23;3,40
1703,30;3,72
1701,37;3,92
1699,44;4,21
1697,51;4,37
1695,58;4,46
1693,65;4,51
1691,72;4,50
1689,79;4,47
1687,86;4,44
1685,93;4,39
1684,00;4,36
1682,07;4,22
1680,14;4,07
1678,21;3,94
1676,28;3,77
1674,35;3,63
1672,42;3,51
1670,49;3,38
1668,56;3,25
1666,63;3,11
1664,70;2,98
1662,77;2,85
1660,84;2,73
1658,91;2,62
1656,98;2,55
1655,05;2,46
1653,12;2,45
1651,19;2,43
1649,26;2,40
1647,33;2,40
1645,40;2,43
1643,47;2,45
1641,54;2,47
1639,61;2,50
1637,68;2,56
1635,75;2,64
1633,82;2,68
1631,89;2,70
1629,96;2,80
1628,03;3,00
1626,10;3,25
1624,17;3,52
1622,24;3,81
1620,31;4,04
1618,38;4,28
1616,45;4,64
1614,52;4,96
1612,59;5,18
1610,66;5,43
1608,73;5,71
1606,80;6,00
1604,87;6,32
1602,94;6,67
1601,01;7,02
1599,08;7,38
1597,15;7,76
1595,22;8,15
1593,29;8,53
1591,36;8,90
1589,43;9,26
1587,50;9,62
1585,57;9,97
1583,64;10,29
1581,71;10,57
1579,78;10,81
1577,85;11,09
1575,92;11,55
1573,99;11,88
1572,06;12,04
1570,13;12,32
1568,20;12,58
1566,27;12,72
1564,34;12,99
1562,41;13,28
1560,48;13,45
1558,55;14,06
1556,62;14,22
1554,69;14,25
1552,76;14,41
1550,83;14,52
1548,90;14,74
1546,97;14,92
1545,04;14,95
1543,11;14,94
1541,18;15,22
1539,25;15,50
1537,32;15,57
1535,39;15,56
1533,46;15,64
1531,53;15,63
1529,60;15,61
1527,67;15,49
1525,74;15,35
1523,81;15,28
1521,88;15,14
1519,95;14,84
1518,02;14,47
1516,09;14,10
1514,16;13,88
1512,23;13,83
1510,30;13,82
1508,37;13,73
1506,44;13,66
1504,51;13,39
1502,58;13,11
1500,65;12,84
1498,72;12,53
1496,79;12,03
1494,86;11,43
1492,93;10,82
1491,00;10,04
1489,07;9,13
1487,14;8,21
1485,21;7,33
1483,28;6,44
1481,35;5,45
1479,42;4,39
1477,49;3,27
1475,56;2,15
1473,63;1,17
1471,70;0,42
1469,77;0,10
1467,84;0,02
1465,91;0,00
1463,98;0,00
1462,05;0,00
1460,12;0,00
1458,19;0,01
1456,26;0,00
1454,33;0,01
1452,40;0,02
1450,47;0,05
1448,54;0,08
1446,61;0,14
1444,68;0,20
1442,75;0,30
1440,82;0,42
1438,89;0,59
1436,96;0,83
1435,03;1,19
1433,10;1,65
1431,17;2,27
1429,24;3,00
1427,31;3,67
1425,38;4,18
1423,45;4,55
1421,52;4,75
1419,59;4,82
1417,66;4,89
1415,73;5,08
1413,80;5,42
1411,87;5,82
1409,94;6,15
1408,01;6,34
1406,08;6,32
1404,15;6,17
1402,22;6,01
1400,29;5,87
1398,36;5,74
1396,43;5,54
1394,50;5,18
1392,57;4,71
1390,64;4,18
1388,71;3,45
1386,78;2,51
1384,85;1,63
1382,92;1,00
1380,99;0,54
1379,06;0,25
1377,13;0,18
1375,20;0,29
1373,27;0,57
1371,34;0,86
1369,41;0,96
1367,48;0,94
1365,55;1,03
1363,62;1,43
1361,69;1,99
1359,76;2,47
1357,83;2,77
1355,90;2,93
1353,97;3,01
1352,04;3,10
1350,11;3,27
1348,18;3,49
1346,25;3,73
1344,32;3,93
1342,39;4,11
1340,46;4,31
1338,53;4,59
1336,60;4,91
1334,67;5,23
1332,74;5,50
1330,81;5,70
1328,88;5,81
1326,95;5,83
1325,02;5,78
1323,09;5,71
1321,16;5,63
1319,23;5,56
1317,30;5,49
1315,37;5,43
1313,44;5,36
1311,51;5,29
1309,58;5,22
1307,65;5,13
1305,72;5,04
1303,79;4,96
1301,86;4,93
1299,93;4,95
1298,00;5,03
1296,07;5,10
1294,14;5,18
1292,21;5,24
1290,28;5,27
1288,35;5,22
1286,42;5,10
1284,49;4,93
1282,56;4,75
1280,63;4,61
1278,70;4,52
1276,77;4,47
1274,84;4,48
1272,91;4,51
1270,98;4,55
1269,05;4,56
1267,12;4,56
1265,19;4,55
1263,26;4,54
1261,33;4,52
1259,40;4,50
1257,47;4,46
1255,54;4,40
1253,61;4,31
1251,68;4,18
1249,75;4,00
1247,82;3,80
1245,89;3,61
1243,96;3,46
1242,03;3,35
1240,10;3,28
1238,17;3,22
1236,24;3,17
1234,31;3,14
1232,38;3,14
1230,45;3,20
1228,52;3,30
1226,59;3,43
1224,66;3,58
1222,73;3,72
1220,80;3,84
1218,87;3,94
1216,94;4,01
1215,01;4,04
1213,08;4,04
1211,15;4,02
1209,22;3,99
1207,29;3,93
1205,36;3,85
1203,43;3,75
1201,50;3,63
1199,57;3,49
1197,64;3,35
1195,71;3,18
1193,78;3,01
1191,85;2,84
1189,92;2,68
1187,99;2,51
1186,06;2,34
1184,13;2,15
1182,20;1,95
1180,27;1,75
1178,34;1,57
1176,41;1,41
1174,48;1,25
1172,55;1,11
1170,62;1,00
1168,69;0,92
1166,76;0,87
1164,83;0,83
1162,90;0,82
1160,97;0,82
1159,04;0,84
1157,11;0,88
1155,18;0,94
1153,25;1,02
1151,32;1,10
1149,39;1,20
1147,46;1,28
1145,53;1,36
1143,60;1,44
1141,67;1,56
1139,74;1,72
1137,81;1,96
1135,88;2,27
1133,95;2,63
1132,02;3,00
1130,09;3,29
1128,16;3,44
1126,23;3,44
1124,30;3,33
1122,37;3,19
1120,44;3,10
1118,51;3,11
1116,58;3,22
1114,65;3,37
1112,72;3,52
1110,79;3,60
1108,86;3,59
1106,93;3,50
1105,00;3,36
1103,07;3,23
1101,14;3,13
1099,21;3,07
1097,28;3,06
1095,35;3,09
1093,42;3,17
1091,49;3,27
1089,56;3,40
1087,63;3,57
1085,70;3,78
1083,77;4,03
1081,84;4,34
1079,91;4,69
1077,98;5,05
1076,05;5,40
1074,12;5,71
1072,19;5,97
1070,26;6,18
1068,33;6,35
1066,40;6,49
1064,47;6,63
1062,54;6,80
1060,61;7,00
1058,68;7,23
1056,75;7,45
1054,82;7,66
1052,89;7,85
1050,96;8,03
1049,03;8,18
1047,10;8,32
1045,17;8,42
1043,24;8,50
1041,31;8,55
1039,38;8,57
1037,45;8,60
1035,52;8,64
1033,59;8,73
1031,66;8,85
1029,73;9,01
1027,80;9,17
1025,87;9,35
1023,94;9,52
1022,01;9,69
1020,08;9,88
1018,15;10,08
1016,22;10,27
1014,29;10,43
1012,36;10,55
1010,43;10,64
1008,50;10,74
1006,57;10,86
1004,64;10,94
1002,71;10,98
1000,78;10,99
998,85;11,00
996,92;11,00
994,99;11,01
993,06;11,01
991,13;11,01
989,20;10,97
987,27;10,94
985,34;10,91
983,41;10,91
981,48;10,90
979,55;10,86
977,62;10,78
975,69;10,65
973,76;10,48
971,83;10,31
969,90;10,16
967,97;10,05
966,04;9,99
964,11;9,99
962,18;10,06
960,25;10,14
958,32;10,20
956,39;10,22
954,46;10,23
952,53;10,24
950,60;10,27
948,67;10,29
946,74;10,32
944,81;10,35
942,88;10,40
940,95;10,43
939,02;10,45
937,09;10,46
935,16;10,46
933,23;10,47
931,30;10,47
929,37;10,45
927,44;10,39
925,51;10,29
923,58;10,15
921,65;9,97
919,72;9,79
917,79;9,68
915,86;9,65
913,93;9,66
912,00;9,68
910,07;9,69
908,14;9,69
906,21;9,68
904,28;9,64
902,35;9,57
900,42;9,43
898,49;9,23
896,56;8,99
894,63;8,73
892,70;8,48
890,77;8,26
888,84;8,11
886,91;8,04
884,98;8,01
883,05;7,98
881,12;7,93
879,19;7,86
877,26;7,78
875,33;7,68
873,40;7,57
871,47;7,44
869,54;7,31
867,61;7,19
865,68;7,08
863,75;6,97
861,82;6,86
859,89;6,76
857,96;6,64
856,03;6,51
854,10;6,38
852,17;6,25
850,24;6,11
848,31;5,98
846,38;5,87
844,45;5,78
842,52;5,71
840,59;5,67
838,66;5,61
836,73;5,54
834,80;5,45
832,87;5,37
830,94;5,30
829,01;5,24
827,08;5,16
825,15;5,07
823,22;4,98
821,29;4,89
819,36;4,80
817,43;4,71
815,50;4,63
813,57;4,57
811,64;4,52
809,71;4,45
807,78;4,39
805,85;4,32
803,92;4,28
801,99;4,26
800,06;4,23
798,13;4,17
796,20;4,09
794,27;4,00
792,34;3,90
790,41;3,79
788,48;3,67
786,55;3,53
784,62;3,37
782,69;3,21
780,76;3,08
778,83;2,97
776,90;2,86
774,97;2,75
773,04;2,64
771,11;2,54
769,18;2,46
767,25;2,40
765,32;2,35
763,39;2,31
761,46;2,27
759,53;2,21
757,60;2,14
755,67;2,07
753,74;1,99
751,81;1,91
749,88;1,82
747,95;1,73
746,02;1,63
744,09;1,52
742,16;1,40
740,23;1,29
738,30;1,18
736,37;1,08
734,44;0,99
732,51;0,88
730,58;0,78
728,65;0,67
726,72;0,56
724,79;0,48
722,86;0,42
720,93;0,44
719,00;0,53
717,07;0,67
715,14;0,82
713,21;0,95
711,28;1,06
709,35;1,17
707,42;1,26
705,49;1,33
703,56;1,39
701,63;1,43
699,70;1,46
697,77;1,50
695,84;1,56
693,91;1,61
691,98;1,65
690,05;1,69
688,12;1,73
686,19;1,77
684,26;1,81
682,33;1,85
680,40;1,88
678,47;1,92
676,54;1,95
674,61;1,99
672,68;2,02
670,75;2,04
668,82;2,05
666,89;2,08
664,96;2,12
663,03;2,14
661,10;2,16
659,17;2,17
657,24;2,20
655,31;2,23
653,38;2,27
651,45;2,30
649,52;2,33
647,59;2,35
645,66;2,38
643,73;2,40
641,80;2,43
639,87;2,45
637,94;2,46
636,01;2,48
634,08;2,49
632,15;2,50
630,22;2,51
628,29;2,52
626,36;2,54
624,43;2,55
622,50;2,56
620,57;2,57
618,64;2,57
616,71;2,57
614,78;2,58
612,85;2,59
610,92;2,60
608,99;2,60
607,06;2,60
605,13;2,61
603,20;2,62
601,27;2,65
599,34;2,68
597,41;2,71
595,48;2,74
593,55;2,77
591,62;2,80
589,69;2,82
587,76;2,84
585,83;2,87
583,90;2,90
581,97;2,94
580,04;2,98
578,11;3,02
576,18;3,07
574,25;3,11
572,32;3,15
570,39;3,20
568,46;3,25
566,53;3,30
564,60;3,35
562,67;3,41
560,74;3,45
558,81;3,51
556,88;3,57
554,95;3,63
553,02;3,67
551,09;3,72
549,16;3,77
547,23;3,81
545,30;3,86
543,37;3,91
541,44;3,96
539,51;4,02
537,58;4,07
535,65;4,13
533,72;4,20
531,79;4,26
529,86;4,31
527,93;4,38
526,00;4,44
524,07;4,49
522,14;4,55
520,21;4,63
518,28;4,71
516,35;4,77
514,42;4,82
512,49;4,88
510,56;4,96
508,63;5,04
506,70;5,12
504,77;5,20
502,84;5,30
500,91;5,34
