Created as New Dataset;Amostra 394 por Laboratório data terça-feira, setembro 24 2024
cm-1;%T
4000,00;9,77
3998,07;9,78
3996,14;9,79
3994,21;9,81
3992,28;9,83
3990,35;9,84
3988,42;9,86
3986,49;9,88
3984,56;9,90
3982,63;9,92
3980,70;9,94
3978,77;9,96
3976,84;9,97
3974,91;9,98
3972,98;9,99
3971,05;10,00
3969,12;10,01
3967,19;10,02
3965,26;10,02
3963,33;10,03
3961,40;10,03
3959,47;10,03
3957,54;10,03
3955,61;10,04
3953,68;10,04
3951,75;10,04
3949,82;10,04
3947,89;10,03
3945,96;10,03
3944,03;10,03
3942,10;10,03
3940,17;10,03
3938,24;10,02
3936,31;10,01
3934,38;10,01
3932,45;10,00
3930,52;10,00
3928,59;9,99
3926,66;9,99
3924,73;9,98
3922,80;9,98
3920,87;9,97
3918,94;9,97
3917,01;9,96
3915,08;9,95
3913,15;9,95
3911,22;9,94
3909,29;9,93
3907,36;9,92
3905,43;9,92
3903,50;9,91
3901,57;9,91
3899,64;9,90
3897,71;9,90
3895,78;9,89
3893,85;9,88
3891,92;9,87
3889,99;9,86
3888,06;9,85
3886,13;9,84
3884,20;9,83
3882,27;9,83
3880,34;9,82
3878,41;9,81
3876,48;9,80
3874,55;9,79
3872,62;9,78
3870,69;9,77
3868,76;9,76
3866,83;9,75
3864,90;9,74
3862,97;9,73
3861,04;9,72
3859,11;9,70
3857,18;9,68
3855,25;9,66
3853,32;9,65
3851,39;9,64
3849,46;9,62
3847,53;9,61
3845,60;9,59
3843,67;9,57
3841,74;9,55
3839,81;9,53
3837,88;9,51
3835,95;9,49
3834,02;9,47
3832,09;9,46
3830,16;9,44
3828,23;9,41
3826,30;9,39
3824,37;9,36
3822,44;9,34
3820,51;9,32
3818,58;9,30
3816,65;9,28
3814,72;9,26
3812,79;9,24
3810,86;9,22
3808,93;9,20
3807,00;9,18
3805,07;9,15
3803,14;9,13
3801,21;9,11
3799,28;9,08
3797,35;9,06
3795,42;9,03
3793,49;9,00
3791,56;8,97
3789,63;8,94
3787,70;8,91
3785,77;8,88
3783,84;8,85
3781,91;8,82
3779,98;8,78
3778,05;8,75
3776,12;8,72
3774,19;8,69
3772,26;8,65
3770,33;8,62
3768,40;8,58
3766,47;8,54
3764,54;8,50
3762,61;8,46
3760,68;8,42
3758,75;8,38
3756,82;8,33
3754,89;8,29
3752,96;8,24
3751,03;8,20
3749,10;8,15
3747,17;8,10
3745,24;8,04
3743,31;7,98
3741,38;7,92
3739,45;7,86
3737,52;7,81
3735,59;7,74
3733,66;7,67
3731,73;7,61
3729,80;7,54
3727,87;7,47
3725,94;7,39
3724,01;7,31
3722,08;7,23
3720,15;7,14
3718,22;7,05
3716,29;6,97
3714,36;6,87
3712,43;6,77
3710,50;6,65
3708,57;6,54
3706,64;6,42
3704,71;6,30
3702,78;6,18
3700,85;6,04
3698,92;5,90
3696,99;5,76
3695,06;5,62
3693,13;5,47
3691,20;5,32
3689,27;5,14
3687,34;4,97
3685,41;4,82
3683,48;4,66
3681,55;4,50
3679,62;4,34
3677,69;4,18
3675,76;4,00
3673,83;3,82
3671,90;3,66
3669,97;3,48
3668,04;3,31
3666,11;3,15
3664,18;3,00
3662,25;2,85
3660,32;2,71
3658,39;2,58
3656,46;2,45
3654,53;2,33
3652,60;2,22
3650,67;2,11
3648,74;2,00
3646,81;1,89
3644,88;1,79
3642,95;1,70
3641,02;1,62
3639,09;1,55
3637,16;1,48
3635,23;1,41
3633,30;1,36
3631,37;1,31
3629,44;1,25
3627,51;1,19
3625,58;1,13
3623,65;1,08
3621,72;1,04
3619,79;1,00
3617,86;0,95
3615,93;0,91
3614,00;0,87
3612,07;0,84
3610,14;0,80
3608,21;0,77
3606,28;0,73
3604,35;0,70
3602,42;0,67
3600,49;0,64
3598,56;0,62
3596,63;0,60
3594,70;0,57
3592,77;0,55
3590,84;0,53
3588,91;0,51
3586,98;0,48
3585,05;0,45
3583,12;0,43
3581,19;0,42
3579,26;0,41
3577,33;0,39
3575,40;0,37
3573,47;0,36
3571,54;0,34
3569,61;0,33
3567,68;0,32
3565,75;0,31
3563,82;0,29
3561,89;0,27
3559,96;0,26
3558,03;0,26
3556,10;0,25
3554,17;0,24
3552,24;0,23
3550,31;0,22
3548,38;0,21
3546,45;0,19
3544,52;0,18
3542,59;0,18
3540,66;0,18
3538,73;0,17
3536,80;0,16
3534,87;0,16
3532,94;0,16
3531,01;0,16
3529,08;0,15
3527,15;0,14
3525,22;0,13
3523,29;0,13
3521,36;0,13
3519,43;0,13
3517,50;0,12
3515,57;0,11
3513,64;0,11
3511,71;0,11
3509,78;0,10
3507,85;0,10
3505,92;0,09
3503,99;0,08
3502,06;0,08
3500,13;0,08
3498,20;0,07
3496,27;0,07
3494,34;0,07
3492,41;0,07
3490,48;0,07
3488,55;0,06
3486,62;0,06
3484,69;0,06
3482,76;0,06
3480,83;0,05
3478,90;0,05
3476,97;0,06
3475,04;0,06
3473,11;0,06
3471,18;0,05
3469,25;0,04
3467,32;0,04
3465,39;0,05
3463,46;0,05
3461,53;0,05
3459,60;0,05
3457,67;0,05
3455,74;0,05
3453,81;0,05
3451,88;0,05
3449,95;0,05
3448,02;0,05
3446,09;0,05
3444,16;0,05
3442,23;0,05
3440,30;0,05
3438,37;0,04
3436,44;0,03
3434,51;0,03
3432,58;0,04
3430,65;0,04
3428,72;0,04
3426,79;0,04
3424,86;0,04
3422,93;0,04
3421,00;0,04
3419,07;0,04
3417,14;0,04
3415,21;0,04
3413,28;0,03
3411,35;0,03
3409,42;0,03
3407,49;0,03
3405,56;0,03
3403,63;0,03
3401,70;0,02
3399,77;0,02
3397,84;0,03
3395,91;0,03
3393,98;0,03
3392,05;0,03
3390,12;0,03
3388,19;0,03
3386,26;0,03
3384,33;0,03
3382,40;0,03
3380,47;0,03
3378,54;0,03
3376,61;0,03
3374,68;0,03
3372,75;0,03
3370,82;0,03
3368,89;0,02
3366,96;0,03
3365,03;0,03
3363,10;0,03
3361,17;0,03
3359,24;0,03
3357,31;0,03
3355,38;0,03
3353,45;0,03
3351,52;0,03
3349,59;0,03
3347,66;0,04
3345,73;0,04
3343,80;0,04
3341,87;0,03
3339,94;0,04
3338,01;0,04
3336,08;0,04
3334,15;0,04
3332,22;0,04
3330,29;0,04
3328,36;0,04
3326,43;0,04
3324,50;0,04
3322,57;0,05
3320,64;0,05
3318,71;0,05
3316,78;0,05
3314,85;0,05
3312,92;0,05
3310,99;0,05
3309,06;0,05
3307,13;0,05
3305,20;0,05
3303,27;0,05
3301,34;0,06
3299,41;0,06
3297,48;0,06
3295,55;0,06
3293,62;0,06
3291,69;0,06
3289,76;0,06
3287,83;0,07
3285,90;0,07
3283,97;0,07
3282,04;0,07
3280,11;0,07
3278,18;0,08
3276,25;0,08
3274,32;0,08
3272,39;0,08
3270,46;0,08
3268,53;0,09
3266,60;0,09
3264,67;0,09
3262,74;0,10
3260,81;0,10
3258,88;0,10
3256,95;0,10
3255,02;0,11
3253,09;0,11
3251,16;0,11
3249,23;0,12
3247,30;0,12
3245,37;0,13
3243,44;0,13
3241,51;0,14
3239,58;0,14
3237,65;0,15
3235,72;0,15
3233,79;0,15
3231,86;0,16
3229,93;0,17
3228,00;0,18
3226,07;0,18
3224,14;0,19
3222,21;0,20
3220,28;0,21
3218,35;0,22
3216,42;0,22
3214,49;0,24
3212,56;0,25
3210,63;0,26
3208,70;0,27
3206,77;0,28
3204,84;0,29
3202,91;0,30
3200,98;0,32
3199,05;0,33
3197,12;0,35
3195,19;0,36
3193,26;0,38
3191,33;0,40
3189,40;0,42
3187,47;0,44
3185,54;0,46
3183,61;0,48
3181,68;0,51
3179,75;0,53
3177,82;0,56
3175,89;0,58
3173,96;0,61
3172,03;0,64
3170,10;0,67
3168,17;0,71
3166,24;0,75
3164,31;0,78
3162,38;0,82
3160,45;0,86
3158,52;0,90
3156,59;0,95
3154,66;0,99
3152,73;1,04
3150,80;1,09
3148,87;1,14
3146,94;1,20
3145,01;1,25
3143,08;1,31
3141,15;1,37
3139,22;1,43
3137,29;1,49
3135,36;1,56
3133,43;1,63
3131,50;1,69
3129,57;1,77
3127,64;1,84
3125,71;1,92
3123,78;1,99
3121,85;2,06
3119,92;2,14
3117,99;2,22
3116,06;2,31
3114,13;2,39
3112,20;2,48
3110,27;2,57
3108,34;2,65
3106,41;2,74
3104,48;2,83
3102,55;2,92
3100,62;3,01
3098,69;3,10
3096,76;3,19
3094,83;3,28
3092,90;3,37
3090,97;3,45
3089,04;3,53
3087,11;3,61
3085,18;3,68
3083,25;3,76
3081,32;3,83
3079,39;3,90
3077,46;3,97
3075,53;4,04
3073,60;4,10
3071,67;4,15
3069,74;4,21
3067,81;4,26
3065,88;4,31
3063,95;4,36
3062,02;4,41
3060,09;4,47
3058,16;4,53
3056,23;4,58
3054,30;4,63
3052,37;4,67
3050,44;4,71
3048,51;4,74
3046,58;4,76
3044,65;4,77
3042,72;4,78
3040,79;4,78
3038,86;4,77
3036,93;4,75
3035,00;4,72
3033,07;4,66
3031,14;4,60
3029,21;4,52
3027,28;4,43
3025,35;4,33
3023,42;4,22
3021,49;4,10
3019,56;3,95
3017,63;3,80
3015,70;3,63
3013,77;3,45
3011,84;3,25
3009,91;3,04
3007,98;2,82
3006,05;2,57
3004,12;2,31
3002,19;2,05
3000,26;1,79
2998,33;1,53
2996,40;1,28
2994,47;1,05
2992,54;0,84
2990,61;0,65
2988,68;0,49
2986,75;0,35
2984,82;0,24
2982,89;0,15
2980,96;0,09
2979,03;0,05
2977,10;0,03
2975,17;0,02
2973,24;0,02
2971,31;0,02
2969,38;0,01
2967,45;0,01
2965,52;0,01
2963,59;0,01
2961,66;0,01
2959,73;0,01
2957,80;0,01
2955,87;0,01
2953,94;0,00
2952,01;0,00
2950,08;0,00
2948,15;0,00
2946,22;0,00
2944,29;0,00
2942,36;0,00
2940,43;0,00
2938,50;0,00
2936,57;0,00
2934,64;0,00
2932,71;0,00
2930,78;0,00
2928,85;0,00
2926,92;0,00
2924,99;0,00
2923,06;0,00
2921,13;0,00
2919,20;0,00
2917,27;0,00
2915,34;0,00
2913,41;0,00
2911,48;0,00
2909,55;0,00
2907,62;0,00
2905,69;0,00
2903,76;0,00
2901,83;0,00
2899,90;0,00
2897,97;0,00
2896,04;0,00
2894,11;0,00
2892,18;0,00
2890,25;0,00
2888,32;0,00
2886,39;0,00
2884,46;0,00
2882,53;0,00
2880,60;0,00
2878,67;0,00
2876,74;0,00
2874,81;0,00
2872,88;0,00
2870,95;0,00
2869,02;0,00
2867,09;0,00
2865,16;0,01
2863,23;0,01
2861,30;0,01
2859,37;0,01
2857,44;0,01
2855,51;0,01
2853,58;0,01
2851,65;0,01
2849,72;0,01
2847,79;0,01
2845,86;0,02
2843,93;0,02
2842,00;0,01
2840,07;0,01
2838,14;0,02
2836,21;0,04
2834,28;0,08
2832,35;0,17
2830,42;0,32
2828,49;0,51
2826,56;0,75
2824,63;1,03
2822,70;1,34
2820,77;1,67
2818,84;2,03
2816,91;2,42
2814,98;2,82
2813,05;3,24
2811,12;3,68
2809,19;4,14
2807,26;4,62
2805,33;5,10
2803,40;5,59
2801,47;6,08
2799,54;6,57
2797,61;7,06
2795,68;7,55
2793,75;8,04
2791,82;8,54
2789,89;9,04
2787,96;9,56
2786,03;10,07
2784,10;10,60
2782,17;11,12
2780,24;11,63
2778,31;12,12
2776,38;12,58
2774,45;13,02
2772,52;13,42
2770,59;13,78
2768,66;14,10
2766,73;14,38
2764,80;14,61
2762,87;14,81
2760,94;14,96
2759,01;15,10
2757,08;15,23
2755,15;15,35
2753,22;15,45
2751,29;15,52
2749,36;15,55
2747,43;15,55
2745,50;15,51
2743,57;15,42
2741,64;15,29
2739,71;15,10
2737,78;14,85
2735,85;14,55
2733,92;14,22
2731,99;13,91
2730,06;13,70
2728,13;13,64
2726,20;13,70
2724,27;13,84
2722,34;14,03
2720,41;14,25
2718,48;14,52
2716,55;14,83
2714,62;15,18
2712,69;15,55
2710,76;15,90
2708,83;16,19
2706,90;16,43
2704,97;16,61
2703,04;16,73
2701,11;16,81
2699,18;16,84
2697,25;16,83
2695,32;16,79
2693,39;16,72
2691,46;16,64
2689,53;16,56
2687,60;16,49
2685,67;16,45
2683,74;16,43
2681,81;16,43
2679,88;16,44
2677,95;16,45
2676,02;16,46
2674,09;16,47
2672,16;16,50
2670,23;16,56
2668,30;16,66
2666,37;16,81
2664,44;16,99
2662,51;17,20
2660,58;17,41
2658,65;17,62
2656,72;17,83
2654,79;18,02
2652,86;18,20
2650,93;18,36
2649,00;18,51
2647,07;18,64
2645,14;18,77
2643,21;18,89
2641,28;19,01
2639,35;19,12
2637,42;19,22
2635,49;19,32
2633,56;19,42
2631,63;19,50
2629,70;19,59
2627,77;19,68
2625,84;19,76
2623,91;19,85
2621,98;19,94
2620,05;20,02
2618,12;20,11
2616,19;20,21
2614,26;20,30
2612,33;20,40
2610,40;20,51
2608,47;20,62
2606,54;20,74
2604,61;20,86
2602,68;20,99
2600,75;21,13
2598,82;21,28
2596,89;21,44
2594,96;21,61
2593,03;21,79
2591,10;21,98
2589,17;22,17
2587,24;22,37
2585,31;22,57
2583,38;22,78
2581,45;23,00
2579,52;23,22
2577,59;23,44
2575,66;23,66
2573,73;23,88
2571,80;24,09
2569,87;24,30
2567,94;24,50
2566,01;24,69
2564,08;24,88
2562,15;25,05
2560,22;25,21
2558,29;25,36
2556,36;25,50
2554,43;25,63
2552,50;25,75
2550,57;25,87
2548,64;25,98
2546,71;26,08
2544,78;26,17
2542,85;26,27
2540,92;26,36
2538,99;26,44
2537,06;26,52
2535,13;26,60
2533,20;26,68
2531,27;26,76
2529,34;26,86
2527,41;26,96
2525,48;27,08
2523,55;27,19
2521,62;27,30
2519,69;27,41
2517,76;27,52
2515,83;27,62
2513,90;27,72
2511,97;27,82
2510,04;27,91
2508,11;28,00
2506,18;28,08
2504,25;28,16
2502,32;28,23
2500,39;28,30
2498,46;28,37
2496,53;28,43
2494,60;28,49
2492,67;28,54
2490,74;28,60
2488,81;28,64
2486,88;28,68
2484,95;28,72
2483,02;28,75
2481,09;28,78
2479,16;28,81
2477,23;28,83
2475,30;28,86
2473,37;28,88
2471,44;28,90
2469,51;28,92
2467,58;28,93
2465,65;28,95
2463,72;28,96
2461,79;28,96
2459,86;28,97
2457,93;28,97
2456,00;28,97
2454,07;28,97
2452,14;28,96
2450,21;28,95
2448,28;28,94
2446,35;28,93
2444,42;28,92
2442,49;28,90
2440,56;28,88
2438,63;28,86
2436,70;28,84
2434,77;28,81
2432,84;28,79
2430,91;28,76
2428,98;28,74
2427,05;28,71
2425,12;28,68
2423,19;28,65
2421,26;28,62
2419,33;28,59
2417,40;28,56
2415,47;28,53
2413,54;28,50
2411,61;28,48
2409,68;28,46
2407,75;28,44
2405,82;28,42
2403,89;28,41
2401,96;28,41
2400,03;28,40
2398,10;28,40
2396,17;28,41
2394,24;28,41
2392,31;28,42
2390,38;28,42
2388,45;28,42
2386,52;28,41
2384,59;28,38
2382,66;28,35
2380,73;28,30
2378,80;28,25
2376,87;28,21
2374,94;28,19
2373,01;28,19
2371,08;28,18
2369,15;28,17
2367,22;28,15
2365,29;28,12
2363,36;28,08
2361,43;28,04
2359,50;28,01
2357,57;27,99
2355,64;27,96
2353,71;27,94
2351,78;27,92
2349,85;27,91
2347,92;27,89
2345,99;27,88
2344,06;27,86
2342,13;27,85
2340,20;27,82
2338,27;27,77
2336,34;27,71
2334,41;27,70
2332,48;27,74
2330,55;27,80
2328,62;27,84
2326,69;27,86
2324,76;27,85
2322,83;27,84
2320,90;27,85
2318,97;27,87
2317,04;27,90
2315,11;27,91
2313,18;27,91
2311,25;27,93
2309,32;27,96
2307,39;28,00
2305,46;28,04
2303,53;28,07
2301,60;28,09
2299,67;28,12
2297,74;28,14
2295,81;28,16
2293,88;28,18
2291,95;28,20
2290,02;28,22
2288,09;28,23
2286,16;28,25
2284,23;28,26
2282,30;28,27
2280,37;28,29
2278,44;28,31
2276,51;28,33
2274,58;28,35
2272,65;28,36
2270,72;28,37
2268,79;28,37
2266,86;28,38
2264,93;28,39
2263,00;28,39
2261,07;28,40
2259,14;28,41
2257,21;28,41
2255,28;28,42
2253,35;28,42
2251,42;28,42
2249,49;28,42
2247,56;28,42
2245,63;28,42
2243,70;28,42
2241,77;28,42
2239,84;28,41
2237,91;28,40
2235,98;28,39
2234,05;28,37
2232,12;28,36
2230,19;28,34
2228,26;28,33
2226,33;28,31
2224,40;28,29
2222,47;28,28
2220,54;28,26
2218,61;28,24
2216,68;28,22
2214,75;28,20
2212,82;28,18
2210,89;28,16
2208,96;28,13
2207,03;28,11
2205,10;28,09
2203,17;28,07
2201,24;28,05
2199,31;28,03
2197,38;28,01
2195,45;27,98
2193,52;27,96
2191,59;27,93
2189,66;27,91
2187,73;27,89
2185,80;27,87
2183,87;27,86
2181,94;27,86
2180,01;27,83
2178,08;27,81
2176,15;27,83
2174,22;27,85
2172,29;27,86
2170,36;27,86
2168,43;27,87
2166,50;27,87
2164,57;27,88
2162,64;27,89
2160,71;27,90
2158,78;27,91
2156,85;27,92
2154,92;27,94
2152,99;27,96
2151,06;27,99
2149,13;28,03
2147,20;28,08
2145,27;28,14
2143,34;28,21
2141,41;28,28
2139,48;28,34
2137,55;28,40
2135,62;28,46
2133,69;28,51
2131,76;28,55
2129,83;28,59
2127,90;28,63
2125,97;28,68
2124,04;28,72
2122,11;28,76
2120,18;28,80
2118,25;28,85
2116,32;28,89
2114,39;28,93
2112,46;28,98
2110,53;29,02
2108,60;29,07
2106,67;29,11
2104,74;29,16
2102,81;29,21
2100,88;29,26
2098,95;29,31
2097,02;29,36
2095,09;29,41
2093,16;29,47
2091,23;29,52
2089,30;29,57
2087,37;29,62
2085,44;29,67
2083,51;29,73
2081,58;29,78
2079,65;29,83
2077,72;29,89
2075,79;29,94
2073,86;29,99
2071,93;30,04
2070,00;30,09
2068,07;30,15
2066,14;30,20
2064,21;30,24
2062,28;30,29
2060,35;30,33
2058,42;30,38
2056,49;30,42
2054,56;30,46
2052,63;30,50
2050,70;30,54
2048,77;30,58
2046,84;30,62
2044,91;30,66
2042,98;30,70
2041,05;30,75
2039,12;30,78
2037,19;30,83
2035,26;30,88
2033,33;30,95
2031,40;31,01
2029,47;31,09
2027,54;31,17
2025,61;31,27
2023,68;31,37
2021,75;31,51
2019,82;31,66
2017,89;31,83
2015,96;31,99
2014,03;32,16
2012,10;32,32
2010,17;32,48
2008,24;32,61
2006,31;32,74
2004,38;32,86
2002,45;32,96
2000,52;33,06
1998,59;33,15
1996,66;33,24
1994,73;33,34
1992,80;33,44
1990,87;33,51
1988,94;33,58
1987,01;33,64
1985,08;33,71
1983,15;33,77
1981,22;33,84
1979,29;33,90
1977,36;33,96
1975,43;34,02
1973,50;34,07
1971,57;34,12
1969,64;34,18
1967,71;34,24
1965,78;34,29
1963,85;34,32
1961,92;34,36
1959,99;34,40
1958,06;34,44
1956,13;34,47
1954,20;34,50
1952,27;34,53
1950,34;34,56
1948,41;34,58
1946,48;34,61
1944,55;34,66
1942,62;34,68
1940,69;34,66
1938,76;34,64
1936,83;34,66
1934,90;34,71
1932,97;34,77
1931,04;34,80
1929,11;34,83
1927,18;34,86
1925,25;34,91
1923,32;34,94
1921,39;34,95
1919,46;34,97
1917,53;35,00
1915,60;34,98
1913,67;34,97
1911,74;34,98
1909,81;35,02
1907,88;35,02
1905,95;35,03
1904,02;35,04
1902,09;35,05
1900,16;35,05
1898,23;35,07
1896,30;35,09
1894,37;35,09
1892,44;35,09
1890,51;35,13
1888,58;35,14
1886,65;35,14
1884,72;35,14
1882,79;35,15
1880,86;35,17
1878,93;35,17
1877,00;35,19
1875,07;35,18
1873,14;35,16
1871,21;35,18
1869,28;35,29
1867,35;35,36
1865,42;35,37
1863,49;35,36
1861,56;35,37
1859,63;35,36
1857,70;35,37
1855,77;35,36
1853,84;35,35
1851,91;35,34
1849,98;35,30
1848,05;35,23
1846,12;35,29
1844,19;35,39
1842,26;35,37
1840,33;35,30
1838,40;35,27
1836,47;35,23
1834,54;35,12
1832,61;35,03
1830,68;35,05
1828,75;35,09
1826,82;35,07
1824,89;35,02
1822,96;34,93
1821,03;34,85
1819,10;34,77
1817,17;34,67
1815,24;34,54
1813,31;34,44
1811,38;34,36
1809,45;34,27
1807,52;34,10
1805,59;33,94
1803,66;33,75
1801,73;33,55
1799,80;33,36
1797,87;33,10
1795,94;32,82
1794,01;32,70
1792,08;32,62
1790,15;32,39
1788,22;32,13
1786,29;31,88
1784,36;31,58
1782,43;31,28
1780,50;30,98
1778,57;30,58
1776,64;30,10
1774,71;29,72
1772,78;29,60
1770,85;29,46
1768,92;29,19
1766,99;28,75
1765,06;28,32
1763,13;27,85
1761,20;27,22
1759,27;26,38
1757,34;25,25
1755,41;23,68
1753,48;21,96
1751,55;19,97
1749,62;17,99
1747,69;16,51
1745,76;15,68
1743,83;15,36
1741,90;15,45
1739,97;15,68
1738,04;15,86
1736,11;15,98
1734,18;16,14
1732,25;16,17
1730,32;16,12
1728,39;16,07
1726,46;16,12
1724,53;16,21
1722,60;16,24
1720,67;16,14
1718,74;15,99
1716,81;15,72
1714,88;15,20
1712,95;14,57
1711,02;13,90
1709,09;13,29
1707,16;12,78
1705,23;12,29
1703,30;11,88
1701,37;11,61
1699,44;11,33
1697,51;11,17
1695,58;10,99
1693,65;10,74
1691,72;10,47
1689,79;10,14
1687,86;9,74
1685,93;9,47
1684,00;9,19
1682,07;8,83
1680,14;8,44
1678,21;8,07
1676,28;7,73
1674,35;7,35
1672,42;7,02
1670,49;6,76
1668,56;6,47
1666,63;6,20
1664,70;5,98
1662,77;5,78
1660,84;5,59
1658,91;5,39
1656,98;5,19
1655,05;5,06
1653,12;5,01
1651,19;4,92
1649,26;4,86
1647,33;4,84
1645,40;4,85
1643,47;4,83
1641,54;4,82
1639,61;4,81
1637,68;4,85
1635,75;4,94
1633,82;5,01
1631,89;5,07
1629,96;5,24
1628,03;5,56
1626,10;5,94
1624,17;6,33
1622,24;6,73
1620,31;7,01
1618,38;7,30
1616,45;7,72
1614,52;8,08
1612,59;8,33
1610,66;8,58
1608,73;8,83
1606,80;9,13
1604,87;9,48
1602,94;9,88
1601,01;10,30
1599,08;10,73
1597,15;11,19
1595,22;11,66
1593,29;12,10
1591,36;12,50
1589,43;12,89
1587,50;13,28
1585,57;13,65
1583,64;13,99
1581,71;14,27
1579,78;14,44
1577,85;14,71
1575,92;15,18
1573,99;15,51
1572,06;15,70
1570,13;16,02
1568,20;16,31
1566,27;16,52
1564,34;16,64
1562,41;16,64
1560,48;16,84
1558,55;17,43
1556,62;17,75
1554,69;17,96
1552,76;18,19
1550,83;18,40
1548,90;18,56
1546,97;18,67
1545,04;18,70
1543,11;18,67
1541,18;18,94
1539,25;19,36
1537,32;19,48
1535,39;19,53
1533,46;19,64
1531,53;19,60
1529,60;19,48
1527,67;19,31
1525,74;19,02
1523,81;18,71
1521,88;18,43
1519,95;17,91
1518,02;17,40
1516,09;16,91
1514,16;16,64
1512,23;16,55
1510,30;16,42
1508,37;16,30
1506,44;16,21
1504,51;15,92
1502,58;15,58
1500,65;15,14
1498,72;14,65
1496,79;14,01
1494,86;13,20
1492,93;12,37
1491,00;11,40
1489,07;10,30
1487,14;9,24
1485,21;8,21
1483,28;7,14
1481,35;5,92
1479,42;4,63
1477,49;3,36
1475,56;2,15
1473,63;1,15
1471,70;0,41
1469,77;0,10
1467,84;0,02
1465,91;0,01
1463,98;0,00
1462,05;0,01
1460,12;0,00
1458,19;0,01
1456,26;0,00
1454,33;0,02
1452,40;0,02
1450,47;0,05
1448,54;0,08
1446,61;0,15
1444,68;0,24
1442,75;0,40
1440,82;0,61
1438,89;0,90
1436,96;1,36
1435,03;2,07
1433,10;2,97
1431,17;4,19
1429,24;5,60
1427,31;6,88
1425,38;7,90
1423,45;8,74
1421,52;9,35
1419,59;9,92
1417,66;10,41
1415,73;10,73
1413,80;10,96
1411,87;11,15
1409,94;11,26
1408,01;11,33
1406,08;11,36
1404,15;11,34
1402,22;11,26
1400,29;11,12
1398,36;10,82
1396,43;10,29
1394,50;9,41
1392,57;8,28
1390,64;7,09
1388,71;5,75
1386,78;4,16
1384,85;2,68
1382,92;1,56
1380,99;0,77
1379,06;0,31
1377,13;0,18
1375,20;0,32
1373,27;0,73
1371,34;1,21
1369,41;1,44
1367,48;1,42
1365,55;1,60
1363,62;2,36
1361,69;3,57
1359,76;4,64
1357,83;5,34
1355,90;5,73
1353,97;5,93
1352,04;6,14
1350,11;6,48
1348,18;6,93
1346,25;7,34
1344,32;7,64
1342,39;7,85
1340,46;8,13
1338,53;8,60
1336,60;9,19
1334,67;9,80
1332,74;10,35
1330,81;10,84
1328,88;11,24
1326,95;11,54
1325,02;11,75
1323,09;11,85
1321,16;11,83
1319,23;11,72
1317,30;11,54
1315,37;11,35
1313,44;11,18
1311,51;11,03
1309,58;10,91
1307,65;10,82
1305,72;10,76
1303,79;10,76
1301,86;10,84
1299,93;11,02
1298,00;11,29
1296,07;11,61
1294,14;11,93
1292,21;12,22
1290,28;12,48
1288,35;12,69
1286,42;12,87
1284,49;12,99
1282,56;13,06
1280,63;13,06
1278,70;12,99
1276,77;12,91
1274,84;12,87
1272,91;12,87
1270,98;12,93
1269,05;13,01
1267,12;13,15
1265,19;13,30
1263,26;13,48
1261,33;13,64
1259,40;13,80
1257,47;13,92
1255,54;13,98
1253,61;13,97
1251,68;13,90
1249,75;13,81
1247,82;13,73
1245,89;13,69
1243,96;13,70
1242,03;13,71
1240,10;13,68
1238,17;13,54
1236,24;13,29
1234,31;13,06
1232,38;12,95
1230,45;13,02
1228,52;13,22
1226,59;13,49
1224,66;13,77
1222,73;14,04
1220,80;14,28
1218,87;14,48
1216,94;14,64
1215,01;14,75
1213,08;14,82
1211,15;14,83
1209,22;14,80
1207,29;14,73
1205,36;14,64
1203,43;14,54
1201,50;14,47
1199,57;14,45
1197,64;14,44
1195,71;14,41
1193,78;14,37
1191,85;14,34
1189,92;14,34
1187,99;14,36
1186,06;14,34
1184,13;14,21
1182,20;13,98
1180,27;13,70
1178,34;13,40
1176,41;13,07
1174,48;12,68
1172,55;12,24
1170,62;11,86
1168,69;11,69
1166,76;11,70
1164,83;11,74
1162,90;11,72
1160,97;11,62
1159,04;11,50
1157,11;11,38
1155,18;11,32
1153,25;11,34
1151,32;11,45
1149,39;11,62
1147,46;11,84
1145,53;12,09
1143,60;12,35
1141,67;12,61
1139,74;12,87
1137,81;13,11
1135,88;13,32
1133,95;13,49
1132,02;13,63
1130,09;13,69
1128,16;13,69
1126,23;13,62
1124,30;13,52
1122,37;13,40
1120,44;13,31
1118,51;13,27
1116,58;13,27
1114,65;13,30
1112,72;13,32
1110,79;13,35
1108,86;13,37
1106,93;13,35
1105,00;13,27
1103,07;13,13
1101,14;12,96
1099,21;12,76
1097,28;12,49
1095,35;12,14
1093,42;11,73
1091,49;11,31
1089,56;10,94
1087,63;10,72
1085,70;10,70
1083,77;10,86
1081,84;11,14
1079,91;11,49
1077,98;11,86
1076,05;12,23
1074,12;12,60
1072,19;12,95
1070,26;13,27
1068,33;13,54
1066,40;13,80
1064,47;14,07
1062,54;14,37
1060,61;14,69
1058,68;15,00
1056,75;15,23
1054,82;15,34
1052,89;15,35
1050,96;15,30
1049,03;15,23
1047,10;15,18
1045,17;15,17
1043,24;15,20
1041,31;15,28
1039,38;15,37
1037,45;15,49
1035,52;15,66
1033,59;15,88
1031,66;16,14
1029,73;16,44
1027,80;16,76
1025,87;17,06
1023,94;17,31
1022,01;17,51
1020,08;17,71
1018,15;17,94
1016,22;18,14
1014,29;18,27
1012,36;18,33
1010,43;18,38
1008,50;18,48
1006,57;18,63
1004,64;18,75
1002,71;18,81
1000,78;18,83
998,85;18,83
996,92;18,85
994,99;18,88
993,06;18,92
991,13;18,94
989,20;18,93
987,27;18,86
985,34;18,73
983,41;18,57
981,48;18,37
979,55;18,15
977,62;17,91
975,69;17,67
973,76;17,46
971,83;17,28
969,90;17,14
967,97;17,05
966,04;17,03
964,11;17,12
962,18;17,28
960,25;17,46
958,32;17,59
956,39;17,64
954,46;17,64
952,53;17,64
950,60;17,67
948,67;17,70
946,74;17,70
944,81;17,68
942,88;17,66
940,95;17,63
939,02;17,58
937,09;17,53
935,16;17,50
933,23;17,50
931,30;17,53
929,37;17,56
927,44;17,57
925,51;17,54
923,58;17,44
921,65;17,26
919,72;17,08
917,79;17,03
915,86;17,13
913,93;17,25
912,00;17,27
910,07;17,20
908,14;17,08
906,21;16,93
904,28;16,71
902,35;16,41
900,42;15,99
898,49;15,49
896,56;14,91
894,63;14,32
892,70;13,76
890,77;13,29
888,84;12,98
886,91;12,84
884,98;12,80
883,05;12,80
881,12;12,79
879,19;12,78
877,26;12,76
875,33;12,70
873,40;12,59
871,47;12,44
869,54;12,25
867,61;12,04
865,68;11,83
863,75;11,65
861,82;11,49
859,89;11,35
857,96;11,20
856,03;11,03
854,10;10,85
852,17;10,66
850,24;10,46
848,31;10,28
846,38;10,12
844,45;9,99
842,52;9,89
840,59;9,79
838,66;9,68
836,73;9,51
834,80;9,31
832,87;9,12
830,94;8,94
829,01;8,76
827,08;8,56
825,15;8,34
823,22;8,10
821,29;7,86
819,36;7,64
817,43;7,44
815,50;7,27
813,57;7,16
811,64;7,08
809,71;7,00
807,78;6,90
805,85;6,80
803,92;6,76
801,99;6,79
800,06;6,81
798,13;6,76
796,20;6,65
794,27;6,53
792,34;6,41
790,41;6,27
788,48;6,10
786,55;5,90
784,62;5,66
782,69;5,42
780,76;5,21
778,83;5,05
776,90;4,89
774,97;4,72
773,04;4,56
771,11;4,41
769,18;4,28
767,25;4,19
765,32;4,15
763,39;4,15
761,46;4,12
759,53;4,06
757,60;3,97
755,67;3,84
753,74;3,71
751,81;3,58
749,88;3,47
747,95;3,36
746,02;3,25
744,09;3,10
742,16;2,93
740,23;2,79
738,30;2,69
736,37;2,61
734,44;2,51
732,51;2,35
730,58;2,13
728,65;1,87
726,72;1,63
724,79;1,43
722,86;1,29
720,93;1,33
719,00;1,59
717,07;2,01
715,14;2,43
713,21;2,79
711,28;3,10
709,35;3,36
707,42;3,57
705,49;3,72
703,56;3,82
701,63;3,87
699,70;3,89
697,77;3,95
695,84;4,06
693,91;4,18
691,98;4,28
690,05;4,37
688,12;4,44
686,19;4,50
684,26;4,53
682,33;4,55
680,40;4,55
678,47;4,55
676,54;4,53
674,61;4,53
672,68;4,54
670,75;4,55
668,82;4,55
666,89;4,58
664,96;4,59
663,03;4,59
661,10;4,60
659,17;4,61
657,24;4,64
655,31;4,66
653,38;4,69
651,45;4,73
649,52;4,77
647,59;4,81
645,66;4,85
643,73;4,89
641,80;4,94
639,87;4,97
637,94;5,01
636,01;5,04
634,08;5,08
632,15;5,10
630,22;5,13
628,29;5,16
626,36;5,20
624,43;5,24
622,50;5,28
620,57;5,31
618,64;5,34
616,71;5,38
614,78;5,42
612,85;5,45
610,92;5,48
608,99;5,51
607,06;5,54
605,13;5,57
603,20;5,61
601,27;5,66
599,34;5,71
597,41;5,78
595,48;5,84
593,55;5,91
591,62;5,98
589,69;6,04
587,76;6,10
585,83;6,17
583,90;6,23
581,97;6,30
580,04;6,37
578,11;6,44
576,18;6,50
574,25;6,56
572,32;6,62
570,39;6,67
568,46;6,72
566,53;6,79
564,60;6,86
562,67;6,94
560,74;7,04
558,81;7,12
556,88;7,21
554,95;7,29
553,02;7,37
551,09;7,46
549,16;7,55
547,23;7,64
545,30;7,74
543,37;7,84
541,44;7,93
539,51;8,01
537,58;8,11
535,65;8,20
533,72;8,31
531,79;8,41
529,86;8,52
527,93;8,62
526,00;8,73
524,07;8,83
522,14;8,95
520,21;9,08
518,28;9,21
516,35;9,36
514,42;9,50
512,49;9,64
510,56;9,78
508,63;9,92
506,70;10,06
504,77;10,21
502,84;10,36
500,91;10,49
