Created as New Dataset;Amostra 409 por Laboratório data terça-feira, setembro 24 2024
cm-1;%T
4000,00;10,54
3998,07;10,56
3996,14;10,58
3994,21;10,59
3992,28;10,61
3990,35;10,63
3988,42;10,66
3986,49;10,69
3984,56;10,71
3982,63;10,74
3980,70;10,76
3978,77;10,78
3976,84;10,80
3974,91;10,81
3972,98;10,83
3971,05;10,84
3969,12;10,85
3967,19;10,86
3965,26;10,87
3963,33;10,87
3961,40;10,88
3959,47;10,88
3957,54;10,89
3955,61;10,89
3953,68;10,90
3951,75;10,90
3949,82;10,90
3947,89;10,90
3945,96;10,90
3944,03;10,90
3942,10;10,91
3940,17;10,91
3938,24;10,91
3936,31;10,91
3934,38;10,90
3932,45;10,90
3930,52;10,89
3928,59;10,89
3926,66;10,89
3924,73;10,89
3922,80;10,89
3920,87;10,88
3918,94;10,88
3917,01;10,88
3915,08;10,88
3913,15;10,88
3911,22;10,88
3909,29;10,87
3907,36;10,86
3905,43;10,85
3903,50;10,84
3901,57;10,83
3899,64;10,83
3897,71;10,83
3895,78;10,84
3893,85;10,84
3891,92;10,84
3889,99;10,83
3888,06;10,82
3886,13;10,81
3884,20;10,81
3882,27;10,80
3880,34;10,80
3878,41;10,80
3876,48;10,79
3874,55;10,79
3872,62;10,78
3870,69;10,77
3868,76;10,76
3866,83;10,75
3864,90;10,75
3862,97;10,76
3861,04;10,75
3859,11;10,74
3857,18;10,72
3855,25;10,70
3853,32;10,68
3851,39;10,67
3849,46;10,67
3847,53;10,68
3845,60;10,68
3843,67;10,66
3841,74;10,64
3839,81;10,62
3837,88;10,60
3835,95;10,59
3834,02;10,58
3832,09;10,58
3830,16;10,57
3828,23;10,56
3826,30;10,54
3824,37;10,52
3822,44;10,49
3820,51;10,48
3818,58;10,46
3816,65;10,45
3814,72;10,45
3812,79;10,44
3810,86;10,44
3808,93;10,42
3807,00;10,41
3805,07;10,38
3803,14;10,36
3801,21;10,35
3799,28;10,33
3797,35;10,32
3795,42;10,31
3793,49;10,30
3791,56;10,28
3789,63;10,26
3787,70;10,24
3785,77;10,21
3783,84;10,19
3781,91;10,16
3779,98;10,14
3778,05;10,12
3776,12;10,10
3774,19;10,08
3772,26;10,05
3770,33;10,02
3768,40;9,99
3766,47;9,95
3764,54;9,92
3762,61;9,89
3760,68;9,86
3758,75;9,82
3756,82;9,78
3754,89;9,74
3752,96;9,69
3751,03;9,64
3749,10;9,59
3747,17;9,55
3745,24;9,50
3743,31;9,46
3741,38;9,41
3739,45;9,37
3737,52;9,31
3735,59;9,26
3733,66;9,20
3731,73;9,15
3729,80;9,10
3727,87;9,04
3725,94;8,97
3724,01;8,91
3722,08;8,84
3720,15;8,77
3718,22;8,69
3716,29;8,61
3714,36;8,52
3712,43;8,42
3710,50;8,30
3708,57;8,19
3706,64;8,08
3704,71;7,97
3702,78;7,85
3700,85;7,71
3698,92;7,57
3696,99;7,42
3695,06;7,27
3693,13;7,12
3691,20;6,95
3689,27;6,76
3687,34;6,57
3685,41;6,40
3683,48;6,24
3681,55;6,06
3679,62;5,88
3677,69;5,69
3675,76;5,47
3673,83;5,25
3671,90;5,06
3669,97;4,85
3668,04;4,65
3666,11;4,46
3664,18;4,28
3662,25;4,09
3660,32;3,91
3658,39;3,74
3656,46;3,57
3654,53;3,41
3652,60;3,26
3650,67;3,10
3648,74;2,94
3646,81;2,79
3644,88;2,66
3642,95;2,55
3641,02;2,44
3639,09;2,34
3637,16;2,24
3635,23;2,14
3633,30;2,06
3631,37;1,98
3629,44;1,89
3627,51;1,80
3625,58;1,72
3623,65;1,66
3621,72;1,59
3619,79;1,53
3617,86;1,46
3615,93;1,40
3614,00;1,35
3612,07;1,30
3610,14;1,25
3608,21;1,19
3606,28;1,14
3604,35;1,10
3602,42;1,06
3600,49;1,02
3598,56;0,98
3596,63;0,94
3594,70;0,91
3592,77;0,87
3590,84;0,84
3588,91;0,81
3586,98;0,76
3585,05;0,73
3583,12;0,70
3581,19;0,68
3579,26;0,65
3577,33;0,63
3575,40;0,60
3573,47;0,57
3571,54;0,55
3569,61;0,53
3567,68;0,51
3565,75;0,49
3563,82;0,46
3561,89;0,44
3559,96;0,42
3558,03;0,41
3556,10;0,39
3554,17;0,37
3552,24;0,36
3550,31;0,34
3548,38;0,32
3546,45;0,30
3544,52;0,29
3542,59;0,28
3540,66;0,28
3538,73;0,27
3536,80;0,26
3534,87;0,25
3532,94;0,24
3531,01;0,23
3529,08;0,22
3527,15;0,21
3525,22;0,20
3523,29;0,19
3521,36;0,19
3519,43;0,19
3517,50;0,18
3515,57;0,17
3513,64;0,16
3511,71;0,15
3509,78;0,15
3507,85;0,14
3505,92;0,14
3503,99;0,13
3502,06;0,12
3500,13;0,12
3498,20;0,11
3496,27;0,11
3494,34;0,11
3492,41;0,10
3490,48;0,10
3488,55;0,10
3486,62;0,09
3484,69;0,09
3482,76;0,09
3480,83;0,08
3478,90;0,08
3476,97;0,09
3475,04;0,09
3473,11;0,09
3471,18;0,08
3469,25;0,07
3467,32;0,07
3465,39;0,07
3463,46;0,07
3461,53;0,07
3459,60;0,07
3457,67;0,07
3455,74;0,07
3453,81;0,07
3451,88;0,07
3449,95;0,07
3448,02;0,07
3446,09;0,07
3444,16;0,07
3442,23;0,06
3440,30;0,06
3438,37;0,05
3436,44;0,05
3434,51;0,05
3432,58;0,05
3430,65;0,05
3428,72;0,06
3426,79;0,06
3424,86;0,06
3422,93;0,06
3421,00;0,06
3419,07;0,06
3417,14;0,05
3415,21;0,05
3413,28;0,05
3411,35;0,04
3409,42;0,04
3407,49;0,05
3405,56;0,05
3403,63;0,04
3401,70;0,04
3399,77;0,04
3397,84;0,05
3395,91;0,05
3393,98;0,05
3392,05;0,05
3390,12;0,05
3388,19;0,05
3386,26;0,05
3384,33;0,05
3382,40;0,05
3380,47;0,05
3378,54;0,05
3376,61;0,05
3374,68;0,05
3372,75;0,05
3370,82;0,05
3368,89;0,04
3366,96;0,05
3365,03;0,05
3363,10;0,06
3361,17;0,06
3359,24;0,06
3357,31;0,06
3355,38;0,06
3353,45;0,06
3351,52;0,06
3349,59;0,06
3347,66;0,06
3345,73;0,06
3343,80;0,06
3341,87;0,07
3339,94;0,07
3338,01;0,07
3336,08;0,07
3334,15;0,07
3332,22;0,08
3330,29;0,08
3328,36;0,08
3326,43;0,08
3324,50;0,08
3322,57;0,09
3320,64;0,09
3318,71;0,09
3316,78;0,09
3314,85;0,10
3312,92;0,10
3310,99;0,10
3309,06;0,10
3307,13;0,10
3305,20;0,10
3303,27;0,11
3301,34;0,11
3299,41;0,12
3297,48;0,12
3295,55;0,12
3293,62;0,12
3291,69;0,13
3289,76;0,13
3287,83;0,13
3285,90;0,14
3283,97;0,14
3282,04;0,15
3280,11;0,15
3278,18;0,15
3276,25;0,16
3274,32;0,16
3272,39;0,16
3270,46;0,16
3268,53;0,17
3266,60;0,18
3264,67;0,18
3262,74;0,19
3260,81;0,19
3258,88;0,20
3256,95;0,20
3255,02;0,21
3253,09;0,21
3251,16;0,22
3249,23;0,23
3247,30;0,23
3245,37;0,24
3243,44;0,25
3241,51;0,26
3239,58;0,27
3237,65;0,27
3235,72;0,28
3233,79;0,29
3231,86;0,30
3229,93;0,31
3228,00;0,33
3226,07;0,34
3224,14;0,35
3222,21;0,36
3220,28;0,37
3218,35;0,39
3216,42;0,40
3214,49;0,42
3212,56;0,43
3210,63;0,45
3208,70;0,47
3206,77;0,48
3204,84;0,50
3202,91;0,52
3200,98;0,54
3199,05;0,57
3197,12;0,59
3195,19;0,61
3193,26;0,64
3191,33;0,66
3189,40;0,69
3187,47;0,72
3185,54;0,75
3183,61;0,78
3181,68;0,81
3179,75;0,85
3177,82;0,89
3175,89;0,92
3173,96;0,96
3172,03;1,01
3170,10;1,05
3168,17;1,09
3166,24;1,14
3164,31;1,19
3162,38;1,24
3160,45;1,29
3158,52;1,35
3156,59;1,41
3154,66;1,46
3152,73;1,52
3150,80;1,59
3148,87;1,65
3146,94;1,72
3145,01;1,79
3143,08;1,86
3141,15;1,93
3139,22;2,01
3137,29;2,09
3135,36;2,17
3133,43;2,25
3131,50;2,33
3129,57;2,41
3127,64;2,50
3125,71;2,58
3123,78;2,67
3121,85;2,75
3119,92;2,84
3117,99;2,93
3116,06;3,02
3114,13;3,12
3112,20;3,22
3110,27;3,31
3108,34;3,40
3106,41;3,49
3104,48;3,59
3102,55;3,68
3100,62;3,77
3098,69;3,87
3096,76;3,96
3094,83;4,05
3092,90;4,13
3090,97;4,21
3089,04;4,29
3087,11;4,36
3085,18;4,43
3083,25;4,50
3081,32;4,56
3079,39;4,62
3077,46;4,67
3075,53;4,72
3073,60;4,77
3071,67;4,81
3069,74;4,84
3067,81;4,88
3065,88;4,91
3063,95;4,95
3062,02;4,99
3060,09;5,03
3058,16;5,07
3056,23;5,10
3054,30;5,13
3052,37;5,16
3050,44;5,18
3048,51;5,19
3046,58;5,19
3044,65;5,18
3042,72;5,17
3040,79;5,15
3038,86;5,13
3036,93;5,09
3035,00;5,03
3033,07;4,96
3031,14;4,87
3029,21;4,76
3027,28;4,65
3025,35;4,52
3023,42;4,39
3021,49;4,24
3019,56;4,08
3017,63;3,90
3015,70;3,72
3013,77;3,52
3011,84;3,31
3009,91;3,09
3007,98;2,85
3006,05;2,59
3004,12;2,33
3002,19;2,06
3000,26;1,79
2998,33;1,53
2996,40;1,28
2994,47;1,04
2992,54;0,83
2990,61;0,64
2988,68;0,47
2986,75;0,34
2984,82;0,22
2982,89;0,14
2980,96;0,08
2979,03;0,04
2977,10;0,02
2975,17;0,02
2973,24;0,01
2971,31;0,01
2969,38;0,01
2967,45;0,01
2965,52;0,01
2963,59;0,01
2961,66;0,01
2959,73;0,01
2957,80;0,01
2955,87;0,01
2953,94;0,01
2952,01;0,00
2950,08;0,00
2948,15;0,00
2946,22;0,00
2944,29;0,00
2942,36;0,00
2940,43;0,00
2938,50;0,00
2936,57;0,00
2934,64;0,00
2932,71;0,00
2930,78;0,00
2928,85;0,00
2926,92;0,00
2924,99;0,00
2923,06;0,00
2921,13;0,00
2919,20;0,00
2917,27;0,00
2915,34;0,00
2913,41;0,00
2911,48;0,00
2909,55;0,00
2907,62;0,00
2905,69;0,00
2903,76;0,00
2901,83;0,00
2899,90;0,00
2897,97;0,00
2896,04;0,00
2894,11;0,00
2892,18;0,00
2890,25;0,00
2888,32;0,00
2886,39;0,00
2884,46;0,00
2882,53;0,00
2880,60;0,00
2878,67;0,00
2876,74;0,00
2874,81;0,00
2872,88;0,00
2870,95;0,00
2869,02;0,00
2867,09;0,01
2865,16;0,01
2863,23;0,01
2861,30;0,01
2859,37;0,01
2857,44;0,01
2855,51;0,01
2853,58;0,01
2851,65;0,01
2849,72;0,01
2847,79;0,01
2845,86;0,02
2843,93;0,02
2842,00;0,01
2840,07;0,01
2838,14;0,02
2836,21;0,04
2834,28;0,08
2832,35;0,16
2830,42;0,28
2828,49;0,46
2826,56;0,68
2824,63;0,94
2822,70;1,23
2820,77;1,55
2818,84;1,89
2816,91;2,26
2814,98;2,64
2813,05;3,05
2811,12;3,47
2809,19;3,91
2807,26;4,36
2805,33;4,83
2803,40;5,29
2801,47;5,76
2799,54;6,23
2797,61;6,70
2795,68;7,16
2793,75;7,63
2791,82;8,11
2789,89;8,59
2787,96;9,09
2786,03;9,59
2784,10;10,09
2782,17;10,59
2780,24;11,08
2778,31;11,56
2776,38;12,00
2774,45;12,42
2772,52;12,81
2770,59;13,15
2768,66;13,46
2766,73;13,73
2764,80;13,96
2762,87;14,14
2760,94;14,29
2759,01;14,42
2757,08;14,54
2755,15;14,66
2753,22;14,75
2751,29;14,81
2749,36;14,84
2747,43;14,83
2745,50;14,78
2743,57;14,69
2741,64;14,55
2739,71;14,35
2737,78;14,10
2735,85;13,79
2733,92;13,45
2731,99;13,13
2730,06;12,92
2728,13;12,85
2726,20;12,91
2724,27;13,05
2722,34;13,23
2720,41;13,45
2718,48;13,71
2716,55;14,02
2714,62;14,37
2712,69;14,74
2710,76;15,08
2708,83;15,37
2706,90;15,60
2704,97;15,78
2703,04;15,90
2701,11;15,97
2699,18;16,01
2697,25;16,00
2695,32;15,97
2693,39;15,91
2691,46;15,84
2689,53;15,76
2687,60;15,70
2685,67;15,66
2683,74;15,64
2681,81;15,63
2679,88;15,64
2677,95;15,64
2676,02;15,64
2674,09;15,64
2672,16;15,65
2670,23;15,69
2668,30;15,77
2666,37;15,91
2664,44;16,08
2662,51;16,26
2660,58;16,46
2658,65;16,67
2656,72;16,87
2654,79;17,06
2652,86;17,24
2650,93;17,40
2649,00;17,54
2647,07;17,67
2645,14;17,79
2643,21;17,91
2641,28;18,02
2639,35;18,13
2637,42;18,23
2635,49;18,32
2633,56;18,41
2631,63;18,49
2629,70;18,57
2627,77;18,65
2625,84;18,74
2623,91;18,82
2621,98;18,90
2620,05;18,98
2618,12;19,07
2616,19;19,16
2614,26;19,25
2612,33;19,34
2610,40;19,44
2608,47;19,55
2606,54;19,66
2604,61;19,77
2602,68;19,90
2600,75;20,04
2598,82;20,18
2596,89;20,34
2594,96;20,50
2593,03;20,67
2591,10;20,85
2589,17;21,04
2587,24;21,23
2585,31;21,43
2583,38;21,63
2581,45;21,84
2579,52;22,06
2577,59;22,27
2575,66;22,49
2573,73;22,70
2571,80;22,91
2569,87;23,12
2567,94;23,32
2566,01;23,50
2564,08;23,68
2562,15;23,85
2560,22;24,01
2558,29;24,16
2556,36;24,30
2554,43;24,43
2552,50;24,56
2550,57;24,67
2548,64;24,78
2546,71;24,88
2544,78;24,98
2542,85;25,07
2540,92;25,16
2538,99;25,25
2537,06;25,33
2535,13;25,40
2533,20;25,48
2531,27;25,57
2529,34;25,66
2527,41;25,76
2525,48;25,87
2523,55;25,98
2521,62;26,09
2519,69;26,20
2517,76;26,30
2515,83;26,40
2513,90;26,50
2511,97;26,60
2510,04;26,69
2508,11;26,78
2506,18;26,86
2504,25;26,93
2502,32;27,01
2500,39;27,07
2498,46;27,14
2496,53;27,20
2494,60;27,26
2492,67;27,32
2490,74;27,37
2488,81;27,41
2486,88;27,45
2484,95;27,49
2483,02;27,52
2481,09;27,55
2479,16;27,57
2477,23;27,60
2475,30;27,63
2473,37;27,65
2471,44;27,67
2469,51;27,69
2467,58;27,70
2465,65;27,72
2463,72;27,73
2461,79;27,74
2459,86;27,74
2457,93;27,75
2456,00;27,75
2454,07;27,75
2452,14;27,75
2450,21;27,74
2448,28;27,73
2446,35;27,72
2444,42;27,71
2442,49;27,70
2440,56;27,68
2438,63;27,66
2436,70;27,64
2434,77;27,61
2432,84;27,59
2430,91;27,57
2428,98;27,55
2427,05;27,52
2425,12;27,50
2423,19;27,47
2421,26;27,45
2419,33;27,42
2417,40;27,39
2415,47;27,37
2413,54;27,34
2411,61;27,32
2409,68;27,30
2407,75;27,29
2405,82;27,28
2403,89;27,27
2401,96;27,27
2400,03;27,27
2398,10;27,27
2396,17;27,28
2394,24;27,29
2392,31;27,30
2390,38;27,30
2388,45;27,30
2386,52;27,28
2384,59;27,24
2382,66;27,16
2380,73;27,06
2378,80;26,95
2376,87;26,86
2374,94;26,82
2373,01;26,83
2371,08;26,84
2369,15;26,83
2367,22;26,80
2365,29;26,76
2363,36;26,71
2361,43;26,65
2359,50;26,60
2357,57;26,57
2355,64;26,54
2353,71;26,50
2351,78;26,46
2349,85;26,44
2347,92;26,44
2345,99;26,43
2344,06;26,40
2342,13;26,39
2340,20;26,33
2338,27;26,18
2336,34;26,01
2334,41;25,99
2332,48;26,13
2330,55;26,32
2328,62;26,45
2326,69;26,52
2324,76;26,53
2322,83;26,51
2320,90;26,53
2318,97;26,60
2317,04;26,66
2315,11;26,70
2313,18;26,72
2311,25;26,76
2309,32;26,82
2307,39;26,90
2305,46;26,98
2303,53;27,05
2301,60;27,11
2299,67;27,16
2297,74;27,21
2295,81;27,25
2293,88;27,28
2291,95;27,31
2290,02;27,34
2288,09;27,36
2286,16;27,39
2284,23;27,42
2282,30;27,44
2280,37;27,47
2278,44;27,50
2276,51;27,52
2274,58;27,54
2272,65;27,56
2270,72;27,57
2268,79;27,58
2266,86;27,60
2264,93;27,61
2263,00;27,63
2261,07;27,65
2259,14;27,66
2257,21;27,68
2255,28;27,69
2253,35;27,70
2251,42;27,71
2249,49;27,72
2247,56;27,72
2245,63;27,73
2243,70;27,73
2241,77;27,73
2239,84;27,73
2237,91;27,73
2235,98;27,72
2234,05;27,72
2232,12;27,71
2230,19;27,70
2228,26;27,69
2226,33;27,68
2224,40;27,66
2222,47;27,66
2220,54;27,65
2218,61;27,64
2216,68;27,62
2214,75;27,61
2212,82;27,59
2210,89;27,58
2208,96;27,56
2207,03;27,54
2205,10;27,53
2203,17;27,51
2201,24;27,50
2199,31;27,48
2197,38;27,47
2195,45;27,45
2193,52;27,43
2191,59;27,41
2189,66;27,40
2187,73;27,38
2185,80;27,36
2183,87;27,35
2181,94;27,35
2180,01;27,35
2178,08;27,36
2176,15;27,37
2174,22;27,37
2172,29;27,38
2170,36;27,39
2168,43;27,40
2166,50;27,41
2164,57;27,42
2162,64;27,43
2160,71;27,45
2158,78;27,46
2156,85;27,48
2154,92;27,49
2152,99;27,52
2151,06;27,55
2149,13;27,59
2147,20;27,64
2145,27;27,71
2143,34;27,77
2141,41;27,84
2139,48;27,90
2137,55;27,96
2135,62;28,01
2133,69;28,06
2131,76;28,10
2129,83;28,15
2127,90;28,19
2125,97;28,23
2124,04;28,27
2122,11;28,31
2120,18;28,35
2118,25;28,39
2116,32;28,42
2114,39;28,46
2112,46;28,51
2110,53;28,55
2108,60;28,59
2106,67;28,63
2104,74;28,68
2102,81;28,72
2100,88;28,77
2098,95;28,81
2097,02;28,86
2095,09;28,91
2093,16;28,95
2091,23;28,99
2089,30;29,04
2087,37;29,08
2085,44;29,13
2083,51;29,18
2081,58;29,23
2079,65;29,27
2077,72;29,32
2075,79;29,36
2073,86;29,40
2071,93;29,45
2070,00;29,50
2068,07;29,54
2066,14;29,58
2064,21;29,62
2062,28;29,66
2060,35;29,71
2058,42;29,75
2056,49;29,78
2054,56;29,82
2052,63;29,85
2050,70;29,89
2048,77;29,92
2046,84;29,95
2044,91;29,98
2042,98;30,01
2041,05;30,04
2039,12;30,08
2037,19;30,12
2035,26;30,17
2033,33;30,22
2031,40;30,28
2029,47;30,35
2027,54;30,42
2025,61;30,51
2023,68;30,61
2021,75;30,73
2019,82;30,86
2017,89;31,01
2015,96;31,17
2014,03;31,34
2012,10;31,49
2010,17;31,64
2008,24;31,76
2006,31;31,88
2004,38;31,99
2002,45;32,08
2000,52;32,18
1998,59;32,25
1996,66;32,33
1994,73;32,41
1992,80;32,47
1990,87;32,55
1988,94;32,63
1987,01;32,70
1985,08;32,77
1983,15;32,83
1981,22;32,89
1979,29;32,95
1977,36;33,01
1975,43;33,06
1973,50;33,10
1971,57;33,14
1969,64;33,19
1967,71;33,23
1965,78;33,28
1963,85;33,33
1961,92;33,38
1959,99;33,41
1958,06;33,44
1956,13;33,46
1954,20;33,49
1952,27;33,52
1950,34;33,54
1948,41;33,54
1946,48;33,55
1944,55;33,57
1942,62;33,56
1940,69;33,56
1938,76;33,57
1936,83;33,60
1934,90;33,65
1932,97;33,70
1931,04;33,73
1929,11;33,75
1927,18;33,76
1925,25;33,78
1923,32;33,76
1921,39;33,79
1919,46;33,79
1917,53;33,79
1915,60;33,79
1913,67;33,81
1911,74;33,82
1909,81;33,84
1907,88;33,86
1905,95;33,89
1904,02;33,91
1902,09;33,92
1900,16;33,91
1898,23;33,92
1896,30;33,90
1894,37;33,88
1892,44;33,88
1890,51;33,90
1888,58;33,93
1886,65;33,97
1884,72;34,00
1882,79;34,01
1880,86;34,03
1878,93;34,04
1877,00;34,05
1875,07;34,02
1873,14;33,96
1871,21;33,93
1869,28;33,99
1867,35;34,09
1865,42;34,18
1863,49;34,23
1861,56;34,25
1859,63;34,25
1857,70;34,26
1855,77;34,26
1853,84;34,26
1851,91;34,22
1849,98;34,16
1848,05;34,17
1846,12;34,20
1844,19;34,13
1842,26;34,14
1840,33;34,17
1838,40;34,18
1836,47;34,10
1834,54;33,95
1832,61;33,84
1830,68;33,82
1828,75;33,84
1826,82;33,86
1824,89;33,85
1822,96;33,83
1821,03;33,82
1819,10;33,74
1817,17;33,62
1815,24;33,48
1813,31;33,37
1811,38;33,29
1809,45;33,20
1807,52;33,06
1805,59;32,89
1803,66;32,63
1801,73;32,40
1799,80;32,22
1797,87;32,01
1795,94;31,81
1794,01;31,66
1792,08;31,43
1790,15;31,26
1788,22;31,12
1786,29;30,83
1784,36;30,48
1782,43;30,21
1780,50;29,90
1778,57;29,53
1776,64;29,20
1774,71;28,83
1772,78;28,57
1770,85;28,39
1768,92;28,08
1766,99;27,68
1765,06;27,33
1763,13;26,80
1761,20;26,06
1759,27;25,16
1757,34;23,93
1755,41;22,35
1753,48;20,53
1751,55;18,41
1749,62;16,57
1747,69;15,39
1745,76;14,90
1743,83;14,96
1741,90;15,38
1739,97;15,85
1738,04;16,36
1736,11;16,60
1734,18;16,56
1732,25;16,58
1730,32;16,69
1728,39;16,77
1726,46;16,83
1724,53;16,80
1722,60;16,72
1720,67;16,62
1718,74;16,29
1716,81;15,75
1714,88;15,23
1712,95;14,69
1711,02;14,08
1709,09;13,51
1707,16;13,03
1705,23;12,66
1703,30;12,38
1701,37;12,14
1699,44;11,99
1697,51;11,90
1695,58;11,61
1693,65;11,41
1691,72;11,21
1689,79;11,00
1687,86;10,75
1685,93;10,42
1684,00;10,00
1682,07;9,67
1680,14;9,37
1678,21;9,05
1676,28;8,69
1674,35;8,28
1672,42;7,99
1670,49;7,74
1668,56;7,44
1666,63;7,18
1664,70;6,98
1662,77;6,76
1660,84;6,55
1658,91;6,36
1656,98;6,25
1655,05;6,16
1653,12;5,92
1651,19;5,75
1649,26;5,75
1647,33;5,74
1645,40;5,70
1643,47;5,68
1641,54;5,66
1639,61;5,65
1637,68;5,69
1635,75;5,71
1633,82;5,72
1631,89;5,77
1629,96;5,93
1628,03;6,26
1626,10;6,65
1624,17;7,06
1622,24;7,46
1620,31;7,83
1618,38;8,12
1616,45;8,40
1614,52;8,69
1612,59;8,93
1610,66;9,15
1608,73;9,37
1606,80;9,64
1604,87;10,00
1602,94;10,41
1601,01;10,85
1599,08;11,30
1597,15;11,77
1595,22;12,24
1593,29;12,68
1591,36;13,06
1589,43;13,43
1587,50;13,80
1585,57;14,15
1583,64;14,47
1581,71;14,83
1579,78;15,13
1577,85;15,42
1575,92;15,72
1573,99;16,04
1572,06;16,32
1570,13;16,57
1568,20;16,81
1566,27;17,06
1564,34;17,31
1562,41;17,54
1560,48;17,73
1558,55;17,91
1556,62;18,15
1554,69;18,37
1552,76;18,59
1550,83;18,80
1548,90;19,02
1546,97;19,22
1545,04;19,38
1543,11;19,53
1541,18;19,69
1539,25;19,59
1537,32;19,66
1535,39;19,77
1533,46;19,83
1531,53;19,79
1529,60;19,70
1527,67;19,48
1525,74;19,23
1523,81;19,06
1521,88;18,58
1519,95;17,91
1518,02;17,46
1516,09;16,98
1514,16;16,71
1512,23;16,55
1510,30;16,50
1508,37;16,43
1506,44;16,16
1504,51;15,78
1502,58;15,49
1500,65;15,14
1498,72;14,72
1496,79;13,97
1494,86;13,06
1492,93;12,21
1491,00;11,23
1489,07;10,13
1487,14;9,11
1485,21;8,09
1483,28;7,00
1481,35;5,77
1479,42;4,46
1477,49;3,21
1475,56;2,03
1473,63;1,07
1471,70;0,38
1469,77;0,09
1467,84;0,02
1465,91;0,01
1463,98;0,00
1462,05;0,00
1460,12;0,00
1458,19;0,01
1456,26;0,00
1454,33;0,01
1452,40;0,01
1450,47;0,04
1448,54;0,06
1446,61;0,12
1444,68;0,20
1442,75;0,35
1440,82;0,55
1438,89;0,84
1436,96;1,29
1435,03;2,00
1433,10;2,91
1431,17;4,15
1429,24;5,57
1427,31;6,88
1425,38;7,93
1423,45;8,83
1421,52;9,49
1419,59;10,01
1417,66;10,49
1415,73;10,89
1413,80;11,17
1411,87;11,39
1409,94;11,51
1408,01;11,58
1406,08;11,59
1404,15;11,56
1402,22;11,46
1400,29;11,28
1398,36;10,94
1396,43;10,40
1394,50;9,48
1392,57;8,34
1390,64;7,13
1388,71;5,70
1386,78;4,01
1384,85;2,50
1382,92;1,42
1380,99;0,68
1379,06;0,27
1377,13;0,16
1375,20;0,28
1373,27;0,65
1371,34;1,11
1369,41;1,34
1367,48;1,32
1365,55;1,49
1363,62;2,25
1361,69;3,46
1359,76;4,57
1357,83;5,31
1355,90;5,73
1353,97;5,96
1352,04;6,17
1350,11;6,50
1348,18;6,92
1346,25;7,31
1344,32;7,59
1342,39;7,77
1340,46;8,02
1338,53;8,47
1336,60;9,07
1334,67;9,70
1332,74;10,27
1330,81;10,76
1328,88;11,16
1326,95;11,47
1325,02;11,67
1323,09;11,78
1321,16;11,76
1319,23;11,66
1317,30;11,49
1315,37;11,30
1313,44;11,13
1311,51;10,99
1309,58;10,87
1307,65;10,78
1305,72;10,72
1303,79;10,73
1301,86;10,81
1299,93;11,00
1298,00;11,27
1296,07;11,60
1294,14;11,92
1292,21;12,23
1290,28;12,49
1288,35;12,71
1286,42;12,89
1284,49;13,03
1282,56;13,10
1280,63;13,10
1278,70;13,06
1276,77;13,02
1274,84;13,02
1272,91;13,09
1270,98;13,21
1269,05;13,36
1267,12;13,51
1265,19;13,63
1263,26;13,72
1261,33;13,80
1259,40;13,90
1257,47;13,99
1255,54;14,05
1253,61;14,03
1251,68;13,96
1249,75;13,85
1247,82;13,71
1245,89;13,57
1243,96;13,45
1242,03;13,36
1240,10;13,29
1238,17;13,17
1236,24;12,99
1234,31;12,80
1232,38;12,72
1230,45;12,80
1228,52;13,02
1226,59;13,32
1224,66;13,65
1222,73;13,98
1220,80;14,26
1218,87;14,50
1216,94;14,68
1215,01;14,83
1213,08;14,92
1211,15;14,97
1209,22;14,98
1207,29;14,96
1205,36;14,91
1203,43;14,86
1201,50;14,83
1199,57;14,82
1197,64;14,81
1195,71;14,80
1193,78;14,77
1191,85;14,75
1189,92;14,74
1187,99;14,74
1186,06;14,68
1184,13;14,54
1182,20;14,29
1180,27;13,98
1178,34;13,65
1176,41;13,30
1174,48;12,87
1172,55;12,39
1170,62;11,99
1168,69;11,80
1166,76;11,82
1164,83;11,88
1162,90;11,87
1160,97;11,78
1159,04;11,66
1157,11;11,56
1155,18;11,52
1153,25;11,57
1151,32;11,71
1149,39;11,92
1147,46;12,17
1145,53;12,44
1143,60;12,74
1141,67;13,03
1139,74;13,32
1137,81;13,58
1135,88;13,82
1133,95;14,02
1132,02;14,18
1130,09;14,27
1128,16;14,29
1126,23;14,26
1124,30;14,20
1122,37;14,12
1120,44;14,07
1118,51;14,06
1116,58;14,08
1114,65;14,11
1112,72;14,14
1110,79;14,16
1108,86;14,18
1106,93;14,18
1105,00;14,12
1103,07;14,04
1101,14;13,92
1099,21;13,75
1097,28;13,52
1095,35;13,23
1093,42;12,89
1091,49;12,55
1089,56;12,27
1087,63;12,10
1085,70;12,09
1083,77;12,22
1081,84;12,43
1079,91;12,70
1077,98;13,01
1076,05;13,34
1074,12;13,68
1072,19;14,02
1070,26;14,33
1068,33;14,60
1066,40;14,86
1064,47;15,13
1062,54;15,45
1060,61;15,80
1058,68;16,15
1056,75;16,43
1054,82;16,61
1052,89;16,69
1050,96;16,69
1049,03;16,66
1047,10;16,63
1045,17;16,60
1043,24;16,61
1041,31;16,62
1039,38;16,65
1037,45;16,69
1035,52;16,77
1033,59;16,89
1031,66;17,06
1029,73;17,30
1027,80;17,58
1025,87;17,82
1023,94;18,01
1022,01;18,16
1020,08;18,32
1018,15;18,49
1016,22;18,63
1014,29;18,75
1012,36;18,83
1010,43;18,91
1008,50;19,04
1006,57;19,19
1004,64;19,32
1002,71;19,38
1000,78;19,40
998,85;19,42
996,92;19,46
994,99;19,51
993,06;19,57
991,13;19,61
989,20;19,60
987,27;19,55
985,34;19,44
983,41;19,28
981,48;19,08
979,55;18,86
977,62;18,60
975,69;18,34
973,76;18,10
971,83;17,90
969,90;17,75
967,97;17,64
966,04;17,61
964,11;17,69
962,18;17,85
960,25;18,03
958,32;18,17
956,39;18,24
954,46;18,26
952,53;18,29
950,60;18,37
948,67;18,44
946,74;18,49
944,81;18,51
942,88;18,54
940,95;18,54
939,02;18,52
937,09;18,49
935,16;18,47
933,23;18,49
931,30;18,53
929,37;18,57
927,44;18,58
925,51;18,54
923,58;18,42
921,65;18,23
919,72;18,05
917,79;18,00
915,86;18,14
913,93;18,31
912,00;18,37
910,07;18,33
908,14;18,23
906,21;18,09
904,28;17,89
902,35;17,61
900,42;17,22
898,49;16,73
896,56;16,18
894,63;15,61
892,70;15,08
890,77;14,64
888,84;14,38
886,91;14,30
884,98;14,32
883,05;14,33
881,12;14,32
879,19;14,29
877,26;14,25
875,33;14,19
873,40;14,07
871,47;13,90
869,54;13,70
867,61;13,50
865,68;13,30
863,75;13,12
861,82;12,97
859,89;12,83
857,96;12,69
856,03;12,52
854,10;12,32
852,17;12,10
850,24;11,87
848,31;11,67
846,38;11,53
844,45;11,42
842,52;11,34
840,59;11,29
838,66;11,21
836,73;11,06
834,80;10,87
832,87;10,67
830,94;10,49
829,01;10,30
827,08;10,09
825,15;9,85
823,22;9,58
821,29;9,29
819,36;9,02
817,43;8,77
815,50;8,56
813,57;8,44
811,64;8,37
809,71;8,30
807,78;8,22
805,85;8,14
803,92;8,13
801,99;8,21
800,06;8,27
798,13;8,26
796,20;8,17
794,27;8,05
792,34;7,92
790,41;7,77
788,48;7,57
786,55;7,32
784,62;7,03
782,69;6,72
780,76;6,47
778,83;6,27
776,90;6,09
774,97;5,91
773,04;5,72
771,11;5,55
769,18;5,40
767,25;5,29
765,32;5,25
763,39;5,25
761,46;5,23
759,53;5,16
757,60;5,05
755,67;4,90
753,74;4,73
751,81;4,58
749,88;4,46
747,95;4,34
746,02;4,21
744,09;4,03
742,16;3,82
740,23;3,65
738,30;3,55
736,37;3,46
734,44;3,34
732,51;3,15
730,58;2,88
728,65;2,54
726,72;2,22
724,79;1,96
722,86;1,79
720,93;1,85
719,00;2,22
717,07;2,78
715,14;3,35
713,21;3,83
711,28;4,24
709,35;4,58
707,42;4,84
705,49;5,03
703,56;5,14
701,63;5,20
699,70;5,22
697,77;5,31
695,84;5,49
693,91;5,68
691,98;5,85
690,05;5,98
688,12;6,08
686,19;6,15
684,26;6,20
682,33;6,23
680,40;6,25
678,47;6,25
676,54;6,26
674,61;6,26
672,68;6,27
670,75;6,26
668,82;6,24
666,89;6,29
664,96;6,29
663,03;6,27
661,10;6,25
659,17;6,26
657,24;6,29
655,31;6,33
653,38;6,37
651,45;6,41
649,52;6,45
647,59;6,51
645,66;6,56
643,73;6,61
641,80;6,65
639,87;6,69
637,94;6,74
636,01;6,78
634,08;6,82
632,15;6,85
630,22;6,89
628,29;6,93
626,36;6,97
624,43;7,01
622,50;7,05
620,57;7,08
618,64;7,11
616,71;7,14
614,78;7,19
612,85;7,23
610,92;7,26
608,99;7,29
607,06;7,31
605,13;7,33
603,20;7,36
601,27;7,41
599,34;7,49
597,41;7,57
595,48;7,66
593,55;7,73
591,62;7,80
589,69;7,88
587,76;7,95
585,83;8,02
583,90;8,09
581,97;8,16
580,04;8,24
578,11;8,31
576,18;8,37
574,25;8,44
572,32;8,50
570,39;8,55
568,46;8,62
566,53;8,69
564,60;8,77
562,67;8,85
560,74;8,94
558,81;9,03
556,88;9,13
554,95;9,22
553,02;9,31
551,09;9,40
549,16;9,50
547,23;9,61
545,30;9,72
543,37;9,82
541,44;9,92
539,51;10,01
537,58;10,12
535,65;10,24
533,72;10,36
531,79;10,48
529,86;10,58
527,93;10,69
526,00;10,80
524,07;10,92
522,14;11,06
520,21;11,19
518,28;11,33
516,35;11,49
514,42;11,65
512,49;11,80
510,56;11,95
508,63;12,09
506,70;12,24
504,77;12,40
502,84;12,53
500,91;12,67
