Created as New Dataset;Amostra 407 por Laboratório data terça-feira, setembro 24 2024
cm-1;%T
4000,00;7,45
3998,07;7,46
3996,14;7,47
3994,21;7,48
3992,28;7,49
3990,35;7,50
3988,42;7,52
3986,49;7,54
3984,56;7,55
3982,63;7,57
3980,70;7,58
3978,77;7,60
3976,84;7,61
3974,91;7,62
3972,98;7,63
3971,05;7,64
3969,12;7,64
3967,19;7,65
3965,26;7,65
3963,33;7,66
3961,40;7,66
3959,47;7,66
3957,54;7,67
3955,61;7,67
3953,68;7,67
3951,75;7,67
3949,82;7,67
3947,89;7,67
3945,96;7,66
3944,03;7,66
3942,10;7,67
3940,17;7,67
3938,24;7,67
3936,31;7,67
3934,38;7,66
3932,45;7,66
3930,52;7,65
3928,59;7,65
3926,66;7,65
3924,73;7,65
3922,80;7,64
3920,87;7,64
3918,94;7,63
3917,01;7,63
3915,08;7,63
3913,15;7,63
3911,22;7,63
3909,29;7,63
3907,36;7,62
3905,43;7,61
3903,50;7,59
3901,57;7,58
3899,64;7,57
3897,71;7,58
3895,78;7,58
3893,85;7,58
3891,92;7,58
3889,99;7,58
3888,06;7,57
3886,13;7,56
3884,20;7,55
3882,27;7,55
3880,34;7,55
3878,41;7,55
3876,48;7,54
3874,55;7,54
3872,62;7,53
3870,69;7,51
3868,76;7,51
3866,83;7,50
3864,90;7,50
3862,97;7,50
3861,04;7,50
3859,11;7,49
3857,18;7,47
3855,25;7,44
3853,32;7,43
3851,39;7,41
3849,46;7,42
3847,53;7,43
3845,60;7,43
3843,67;7,42
3841,74;7,40
3839,81;7,38
3837,88;7,36
3835,95;7,35
3834,02;7,34
3832,09;7,34
3830,16;7,34
3828,23;7,33
3826,30;7,32
3824,37;7,30
3822,44;7,27
3820,51;7,26
3818,58;7,23
3816,65;7,22
3814,72;7,22
3812,79;7,22
3810,86;7,22
3808,93;7,20
3807,00;7,19
3805,07;7,17
3803,14;7,14
3801,21;7,13
3799,28;7,11
3797,35;7,10
3795,42;7,10
3793,49;7,09
3791,56;7,08
3789,63;7,07
3787,70;7,05
3785,77;7,03
3783,84;7,01
3781,91;6,98
3779,98;6,96
3778,05;6,94
3776,12;6,92
3774,19;6,90
3772,26;6,88
3770,33;6,85
3768,40;6,82
3766,47;6,79
3764,54;6,77
3762,61;6,74
3760,68;6,71
3758,75;6,68
3756,82;6,64
3754,89;6,60
3752,96;6,56
3751,03;6,52
3749,10;6,47
3747,17;6,43
3745,24;6,39
3743,31;6,35
3741,38;6,32
3739,45;6,29
3737,52;6,25
3735,59;6,20
3733,66;6,15
3731,73;6,11
3729,80;6,07
3727,87;6,02
3725,94;5,97
3724,01;5,92
3722,08;5,86
3720,15;5,80
3718,22;5,74
3716,29;5,67
3714,36;5,60
3712,43;5,51
3710,50;5,42
3708,57;5,32
3706,64;5,24
3704,71;5,15
3702,78;5,05
3700,85;4,94
3698,92;4,83
3696,99;4,72
3695,06;4,60
3693,13;4,47
3691,20;4,34
3689,27;4,19
3687,34;4,04
3685,41;3,91
3683,48;3,79
3681,55;3,66
3679,62;3,52
3677,69;3,38
3675,76;3,21
3673,83;3,06
3671,90;2,92
3669,97;2,77
3668,04;2,62
3666,11;2,49
3664,18;2,37
3662,25;2,24
3660,32;2,12
3658,39;2,01
3656,46;1,89
3654,53;1,77
3652,60;1,67
3650,67;1,58
3648,74;1,48
3646,81;1,38
3644,88;1,30
3642,95;1,23
3641,02;1,17
3639,09;1,11
3637,16;1,05
3635,23;0,99
3633,30;0,94
3631,37;0,90
3629,44;0,85
3627,51;0,80
3625,58;0,75
3623,65;0,72
3621,72;0,68
3619,79;0,65
3617,86;0,62
3615,93;0,59
3614,00;0,56
3612,07;0,53
3610,14;0,50
3608,21;0,48
3606,28;0,45
3604,35;0,43
3602,42;0,41
3600,49;0,39
3598,56;0,37
3596,63;0,36
3594,70;0,34
3592,77;0,32
3590,84;0,31
3588,91;0,30
3586,98;0,28
3585,05;0,26
3583,12;0,25
3581,19;0,24
3579,26;0,23
3577,33;0,22
3575,40;0,21
3573,47;0,20
3571,54;0,19
3569,61;0,18
3567,68;0,17
3565,75;0,17
3563,82;0,16
3561,89;0,15
3559,96;0,14
3558,03;0,14
3556,10;0,13
3554,17;0,12
3552,24;0,12
3550,31;0,11
3548,38;0,11
3546,45;0,10
3544,52;0,09
3542,59;0,09
3540,66;0,09
3538,73;0,08
3536,80;0,08
3534,87;0,08
3532,94;0,08
3531,01;0,07
3529,08;0,07
3527,15;0,07
3525,22;0,06
3523,29;0,06
3521,36;0,06
3519,43;0,06
3517,50;0,05
3515,57;0,05
3513,64;0,04
3511,71;0,04
3509,78;0,04
3507,85;0,04
3505,92;0,03
3503,99;0,03
3502,06;0,03
3500,13;0,03
3498,20;0,03
3496,27;0,03
3494,34;0,02
3492,41;0,02
3490,48;0,02
3488,55;0,02
3486,62;0,02
3484,69;0,02
3482,76;0,02
3480,83;0,02
3478,90;0,02
3476,97;0,02
3475,04;0,02
3473,11;0,02
3471,18;0,02
3469,25;0,02
3467,32;0,02
3465,39;0,02
3463,46;0,02
3461,53;0,02
3459,60;0,02
3457,67;0,02
3455,74;0,02
3453,81;0,03
3451,88;0,03
3449,95;0,03
3448,02;0,03
3446,09;0,02
3444,16;0,02
3442,23;0,02
3440,30;0,02
3438,37;0,02
3436,44;0,02
3434,51;0,02
3432,58;0,02
3430,65;0,02
3428,72;0,02
3426,79;0,02
3424,86;0,02
3422,93;0,02
3421,00;0,02
3419,07;0,02
3417,14;0,02
3415,21;0,02
3413,28;0,02
3411,35;0,01
3409,42;0,01
3407,49;0,02
3405,56;0,02
3403,63;0,02
3401,70;0,01
3399,77;0,02
3397,84;0,02
3395,91;0,01
3393,98;0,01
3392,05;0,01
3390,12;0,02
3388,19;0,03
3386,26;0,02
3384,33;0,02
3382,40;0,01
3380,47;0,02
3378,54;0,02
3376,61;0,02
3374,68;0,02
3372,75;0,01
3370,82;0,01
3368,89;0,01
3366,96;0,02
3365,03;0,02
3363,10;0,02
3361,17;0,02
3359,24;0,02
3357,31;0,02
3355,38;0,02
3353,45;0,02
3351,52;0,02
3349,59;0,02
3347,66;0,02
3345,73;0,02
3343,80;0,02
3341,87;0,02
3339,94;0,02
3338,01;0,02
3336,08;0,02
3334,15;0,02
3332,22;0,02
3330,29;0,02
3328,36;0,02
3326,43;0,02
3324,50;0,02
3322,57;0,02
3320,64;0,02
3318,71;0,03
3316,78;0,03
3314,85;0,03
3312,92;0,03
3310,99;0,03
3309,06;0,03
3307,13;0,03
3305,20;0,03
3303,27;0,03
3301,34;0,03
3299,41;0,03
3297,48;0,03
3295,55;0,03
3293,62;0,04
3291,69;0,04
3289,76;0,04
3287,83;0,04
3285,90;0,04
3283,97;0,04
3282,04;0,04
3280,11;0,04
3278,18;0,04
3276,25;0,05
3274,32;0,05
3272,39;0,05
3270,46;0,05
3268,53;0,05
3266,60;0,05
3264,67;0,05
3262,74;0,06
3260,81;0,06
3258,88;0,06
3256,95;0,06
3255,02;0,06
3253,09;0,07
3251,16;0,07
3249,23;0,07
3247,30;0,07
3245,37;0,08
3243,44;0,08
3241,51;0,08
3239,58;0,08
3237,65;0,09
3235,72;0,09
3233,79;0,09
3231,86;0,10
3229,93;0,10
3228,00;0,11
3226,07;0,11
3224,14;0,12
3222,21;0,12
3220,28;0,13
3218,35;0,13
3216,42;0,14
3214,49;0,14
3212,56;0,15
3210,63;0,16
3208,70;0,17
3206,77;0,17
3204,84;0,18
3202,91;0,19
3200,98;0,20
3199,05;0,21
3197,12;0,22
3195,19;0,23
3193,26;0,24
3191,33;0,25
3189,40;0,27
3187,47;0,28
3185,54;0,29
3183,61;0,31
3181,68;0,33
3179,75;0,34
3177,82;0,36
3175,89;0,38
3173,96;0,40
3172,03;0,42
3170,10;0,44
3168,17;0,46
3166,24;0,49
3164,31;0,51
3162,38;0,54
3160,45;0,57
3158,52;0,60
3156,59;0,63
3154,66;0,66
3152,73;0,69
3150,80;0,73
3148,87;0,77
3146,94;0,80
3145,01;0,84
3143,08;0,88
3141,15;0,92
3139,22;0,97
3137,29;1,01
3135,36;1,06
3133,43;1,10
3131,50;1,15
3129,57;1,20
3127,64;1,26
3125,71;1,31
3123,78;1,36
3121,85;1,42
3119,92;1,47
3117,99;1,53
3116,06;1,59
3114,13;1,65
3112,20;1,71
3110,27;1,77
3108,34;1,84
3106,41;1,90
3104,48;1,96
3102,55;2,03
3100,62;2,09
3098,69;2,16
3096,76;2,22
3094,83;2,29
3092,90;2,35
3090,97;2,41
3089,04;2,47
3087,11;2,53
3085,18;2,59
3083,25;2,64
3081,32;2,70
3079,39;2,75
3077,46;2,80
3075,53;2,85
3073,60;2,90
3071,67;2,94
3069,74;2,99
3067,81;3,03
3065,88;3,07
3063,95;3,11
3062,02;3,15
3060,09;3,20
3058,16;3,24
3056,23;3,28
3054,30;3,32
3052,37;3,36
3050,44;3,39
3048,51;3,41
3046,58;3,43
3044,65;3,44
3042,72;3,45
3040,79;3,46
3038,86;3,45
3036,93;3,44
3035,00;3,42
3033,07;3,39
3031,14;3,34
3029,21;3,28
3027,28;3,22
3025,35;3,15
3023,42;3,07
3021,49;2,98
3019,56;2,87
3017,63;2,76
3015,70;2,63
3013,77;2,49
3011,84;2,34
3009,91;2,18
3007,98;2,01
3006,05;1,83
3004,12;1,64
3002,19;1,45
3000,26;1,26
2998,33;1,07
2996,40;0,89
2994,47;0,72
2992,54;0,57
2990,61;0,44
2988,68;0,33
2986,75;0,23
2984,82;0,16
2982,89;0,10
2980,96;0,06
2979,03;0,03
2977,10;0,02
2975,17;0,02
2973,24;0,01
2971,31;0,01
2969,38;0,01
2967,45;0,01
2965,52;0,01
2963,59;0,01
2961,66;0,01
2959,73;0,01
2957,80;0,01
2955,87;0,01
2953,94;0,01
2952,01;0,01
2950,08;0,01
2948,15;0,01
2946,22;0,01
2944,29;0,01
2942,36;0,01
2940,43;0,01
2938,50;0,00
2936,57;0,00
2934,64;0,01
2932,71;0,01
2930,78;0,01
2928,85;0,01
2926,92;0,00
2924,99;0,00
2923,06;0,00
2921,13;0,00
2919,20;0,00
2917,27;0,00
2915,34;0,00
2913,41;0,01
2911,48;0,00
2909,55;0,00
2907,62;0,00
2905,69;0,00
2903,76;0,01
2901,83;0,01
2899,90;0,00
2897,97;0,00
2896,04;0,00
2894,11;0,01
2892,18;0,01
2890,25;0,01
2888,32;0,01
2886,39;0,01
2884,46;0,01
2882,53;0,01
2880,60;0,01
2878,67;0,01
2876,74;0,01
2874,81;0,01
2872,88;0,01
2870,95;0,01
2869,02;0,01
2867,09;0,01
2865,16;0,01
2863,23;0,01
2861,30;0,01
2859,37;0,01
2857,44;0,01
2855,51;0,01
2853,58;0,01
2851,65;0,01
2849,72;0,01
2847,79;0,01
2845,86;0,01
2843,93;0,01
2842,00;0,01
2840,07;0,01
2838,14;0,02
2836,21;0,03
2834,28;0,07
2832,35;0,13
2830,42;0,24
2828,49;0,38
2826,56;0,56
2824,63;0,77
2822,70;1,00
2820,77;1,25
2818,84;1,52
2816,91;1,81
2814,98;2,11
2813,05;2,42
2811,12;2,75
2809,19;3,10
2807,26;3,45
2805,33;3,82
2803,40;4,19
2801,47;4,56
2799,54;4,93
2797,61;5,30
2795,68;5,67
2793,75;6,04
2791,82;6,42
2789,89;6,80
2787,96;7,19
2786,03;7,58
2784,10;7,97
2782,17;8,37
2780,24;8,75
2778,31;9,13
2776,38;9,48
2774,45;9,81
2772,52;10,11
2770,59;10,39
2768,66;10,63
2766,73;10,85
2764,80;11,03
2762,87;11,18
2760,94;11,30
2759,01;11,40
2757,08;11,50
2755,15;11,60
2753,22;11,67
2751,29;11,72
2749,36;11,74
2747,43;11,74
2745,50;11,71
2743,57;11,65
2741,64;11,55
2739,71;11,41
2737,78;11,22
2735,85;11,00
2733,92;10,75
2731,99;10,52
2730,06;10,36
2728,13;10,31
2726,20;10,36
2724,27;10,47
2722,34;10,61
2720,41;10,78
2718,48;10,98
2716,55;11,21
2714,62;11,48
2712,69;11,77
2710,76;12,03
2708,83;12,26
2706,90;12,45
2704,97;12,59
2703,04;12,69
2701,11;12,75
2699,18;12,78
2697,25;12,78
2695,32;12,75
2693,39;12,71
2691,46;12,65
2689,53;12,60
2687,60;12,55
2685,67;12,52
2683,74;12,51
2681,81;12,51
2679,88;12,52
2677,95;12,52
2676,02;12,53
2674,09;12,54
2672,16;12,56
2670,23;12,60
2668,30;12,67
2666,37;12,78
2664,44;12,91
2662,51;13,06
2660,58;13,22
2658,65;13,38
2656,72;13,54
2654,79;13,69
2652,86;13,82
2650,93;13,95
2649,00;14,06
2647,07;14,17
2645,14;14,26
2643,21;14,36
2641,28;14,44
2639,35;14,53
2637,42;14,61
2635,49;14,68
2633,56;14,76
2631,63;14,82
2629,70;14,89
2627,77;14,96
2625,84;15,02
2623,91;15,09
2621,98;15,15
2620,05;15,22
2618,12;15,29
2616,19;15,36
2614,26;15,43
2612,33;15,51
2610,40;15,59
2608,47;15,67
2606,54;15,76
2604,61;15,85
2602,68;15,95
2600,75;16,05
2598,82;16,17
2596,89;16,29
2594,96;16,42
2593,03;16,55
2591,10;16,69
2589,17;16,83
2587,24;16,98
2585,31;17,13
2583,38;17,29
2581,45;17,45
2579,52;17,62
2577,59;17,78
2575,66;17,95
2573,73;18,11
2571,80;18,27
2569,87;18,43
2567,94;18,58
2566,01;18,73
2564,08;18,86
2562,15;18,99
2560,22;19,11
2558,29;19,23
2556,36;19,33
2554,43;19,43
2552,50;19,53
2550,57;19,61
2548,64;19,69
2546,71;19,77
2544,78;19,85
2542,85;19,92
2540,92;19,98
2538,99;20,05
2537,06;20,11
2535,13;20,16
2533,20;20,22
2531,27;20,29
2529,34;20,36
2527,41;20,44
2525,48;20,52
2523,55;20,60
2521,62;20,69
2519,69;20,77
2517,76;20,85
2515,83;20,92
2513,90;21,00
2511,97;21,07
2510,04;21,14
2508,11;21,20
2506,18;21,26
2504,25;21,32
2502,32;21,37
2500,39;21,42
2498,46;21,47
2496,53;21,52
2494,60;21,56
2492,67;21,60
2490,74;21,64
2488,81;21,67
2486,88;21,70
2484,95;21,73
2483,02;21,75
2481,09;21,77
2479,16;21,79
2477,23;21,81
2475,30;21,83
2473,37;21,84
2471,44;21,86
2469,51;21,87
2467,58;21,88
2465,65;21,89
2463,72;21,89
2461,79;21,90
2459,86;21,90
2457,93;21,90
2456,00;21,90
2454,07;21,90
2452,14;21,89
2450,21;21,89
2448,28;21,88
2446,35;21,87
2444,42;21,86
2442,49;21,84
2440,56;21,83
2438,63;21,81
2436,70;21,79
2434,77;21,77
2432,84;21,75
2430,91;21,72
2428,98;21,70
2427,05;21,68
2425,12;21,65
2423,19;21,63
2421,26;21,61
2419,33;21,59
2417,40;21,56
2415,47;21,54
2413,54;21,52
2411,61;21,50
2409,68;21,48
2407,75;21,47
2405,82;21,45
2403,89;21,44
2401,96;21,44
2400,03;21,43
2398,10;21,43
2396,17;21,43
2394,24;21,44
2392,31;21,44
2390,38;21,44
2388,45;21,43
2386,52;21,41
2384,59;21,38
2382,66;21,33
2380,73;21,25
2378,80;21,18
2376,87;21,11
2374,94;21,07
2373,01;21,06
2371,08;21,06
2369,15;21,05
2367,22;21,03
2365,29;21,00
2363,36;20,95
2361,43;20,91
2359,50;20,86
2357,57;20,83
2355,64;20,79
2353,71;20,75
2351,78;20,72
2349,85;20,70
2347,92;20,68
2345,99;20,67
2344,06;20,64
2342,13;20,61
2340,20;20,53
2338,27;20,39
2336,34;20,23
2334,41;20,21
2332,48;20,35
2330,55;20,52
2328,62;20,63
2326,69;20,67
2324,76;20,68
2322,83;20,67
2320,90;20,68
2318,97;20,73
2317,04;20,77
2315,11;20,80
2313,18;20,82
2311,25;20,85
2309,32;20,89
2307,39;20,94
2305,46;21,00
2303,53;21,04
2301,60;21,08
2299,67;21,11
2297,74;21,14
2295,81;21,16
2293,88;21,18
2291,95;21,19
2290,02;21,20
2288,09;21,22
2286,16;21,24
2284,23;21,25
2282,30;21,27
2280,37;21,28
2278,44;21,30
2276,51;21,32
2274,58;21,33
2272,65;21,33
2270,72;21,34
2268,79;21,34
2266,86;21,35
2264,93;21,35
2263,00;21,36
2261,07;21,37
2259,14;21,37
2257,21;21,38
2255,28;21,38
2253,35;21,39
2251,42;21,39
2249,49;21,39
2247,56;21,39
2245,63;21,39
2243,70;21,39
2241,77;21,38
2239,84;21,38
2237,91;21,37
2235,98;21,36
2234,05;21,35
2232,12;21,34
2230,19;21,32
2228,26;21,31
2226,33;21,30
2224,40;21,28
2222,47;21,27
2220,54;21,26
2218,61;21,24
2216,68;21,23
2214,75;21,21
2212,82;21,19
2210,89;21,17
2208,96;21,16
2207,03;21,14
2205,10;21,12
2203,17;21,11
2201,24;21,09
2199,31;21,07
2197,38;21,06
2195,45;21,04
2193,52;21,02
2191,59;21,00
2189,66;20,98
2187,73;20,97
2185,80;20,95
2183,87;20,94
2181,94;20,93
2180,01;20,93
2178,08;20,93
2176,15;20,93
2174,22;20,93
2172,29;20,93
2170,36;20,93
2168,43;20,94
2166,50;20,94
2164,57;20,94
2162,64;20,95
2160,71;20,95
2158,78;20,96
2156,85;20,97
2154,92;20,98
2152,99;20,99
2151,06;21,01
2149,13;21,04
2147,20;21,08
2145,27;21,12
2143,34;21,17
2141,41;21,22
2139,48;21,26
2137,55;21,31
2135,62;21,34
2133,69;21,38
2131,76;21,41
2129,83;21,44
2127,90;21,47
2125,97;21,50
2124,04;21,53
2122,11;21,56
2120,18;21,59
2118,25;21,62
2116,32;21,65
2114,39;21,68
2112,46;21,71
2110,53;21,74
2108,60;21,78
2106,67;21,81
2104,74;21,85
2102,81;21,88
2100,88;21,92
2098,95;21,96
2097,02;22,00
2095,09;22,03
2093,16;22,07
2091,23;22,11
2089,30;22,15
2087,37;22,19
2085,44;22,23
2083,51;22,27
2081,58;22,32
2079,65;22,36
2077,72;22,40
2075,79;22,44
2073,86;22,48
2071,93;22,52
2070,00;22,56
2068,07;22,59
2066,14;22,64
2064,21;22,67
2062,28;22,71
2060,35;22,75
2058,42;22,79
2056,49;22,82
2054,56;22,86
2052,63;22,89
2050,70;22,92
2048,77;22,95
2046,84;22,98
2044,91;23,01
2042,98;23,04
2041,05;23,08
2039,12;23,12
2037,19;23,16
2035,26;23,20
2033,33;23,25
2031,40;23,30
2029,47;23,36
2027,54;23,43
2025,61;23,50
2023,68;23,59
2021,75;23,68
2019,82;23,78
2017,89;23,92
2015,96;24,05
2014,03;24,19
2012,10;24,32
2010,17;24,44
2008,24;24,55
2006,31;24,65
2004,38;24,74
2002,45;24,83
2000,52;24,91
1998,59;24,99
1996,66;25,05
1994,73;25,10
1992,80;25,17
1990,87;25,24
1988,94;25,31
1987,01;25,38
1985,08;25,44
1983,15;25,50
1981,22;25,55
1979,29;25,60
1977,36;25,66
1975,43;25,71
1973,50;25,76
1971,57;25,79
1969,64;25,81
1967,71;25,86
1965,78;25,91
1963,85;25,95
1961,92;25,99
1959,99;26,02
1958,06;26,05
1956,13;26,08
1954,20;26,11
1952,27;26,14
1950,34;26,17
1948,41;26,19
1946,48;26,19
1944,55;26,20
1942,62;26,22
1940,69;26,23
1938,76;26,25
1936,83;26,29
1934,90;26,33
1932,97;26,38
1931,04;26,41
1929,11;26,45
1927,18;26,45
1925,25;26,46
1923,32;26,51
1921,39;26,50
1919,46;26,51
1917,53;26,53
1915,60;26,54
1913,67;26,55
1911,74;26,55
1909,81;26,58
1907,88;26,60
1905,95;26,62
1904,02;26,63
1902,09;26,64
1900,16;26,64
1898,23;26,63
1896,30;26,65
1894,37;26,66
1892,44;26,63
1890,51;26,65
1888,58;26,65
1886,65;26,66
1884,72;26,69
1882,79;26,70
1880,86;26,70
1878,93;26,71
1877,00;26,73
1875,07;26,76
1873,14;26,73
1871,21;26,66
1869,28;26,68
1867,35;26,72
1865,42;26,77
1863,49;26,79
1861,56;26,81
1859,63;26,81
1857,70;26,82
1855,77;26,81
1853,84;26,81
1851,91;26,78
1849,98;26,78
1848,05;26,72
1846,12;26,68
1844,19;26,68
1842,26;26,64
1840,33;26,63
1838,40;26,62
1836,47;26,62
1834,54;26,56
1832,61;26,43
1830,68;26,41
1828,75;26,35
1826,82;26,29
1824,89;26,26
1822,96;26,20
1821,03;26,15
1819,10;26,07
1817,17;25,99
1815,24;25,86
1813,31;25,74
1811,38;25,63
1809,45;25,53
1807,52;25,40
1805,59;25,25
1803,66;25,03
1801,73;24,82
1799,80;24,62
1797,87;24,46
1795,94;24,24
1794,01;24,03
1792,08;23,82
1790,15;23,60
1788,22;23,40
1786,29;23,15
1784,36;22,82
1782,43;22,50
1780,50;22,19
1778,57;21,85
1776,64;21,46
1774,71;21,04
1772,78;20,71
1770,85;20,26
1768,92;19,83
1766,99;19,27
1765,06;18,56
1763,13;17,63
1761,20;16,23
1759,27;14,47
1757,34;12,31
1755,41;9,77
1753,48;7,55
1751,55;5,71
1749,62;4,48
1747,69;3,96
1745,76;4,02
1743,83;4,47
1741,90;5,20
1739,97;6,11
1738,04;6,95
1736,11;7,53
1734,18;8,07
1732,25;8,46
1730,32;8,81
1728,39;9,18
1726,46;9,60
1724,53;10,01
1722,60;10,32
1720,67;10,38
1718,74;10,32
1716,81;10,11
1714,88;9,80
1712,95;9,45
1711,02;9,08
1709,09;8,69
1707,16;8,37
1705,23;8,11
1703,30;7,88
1701,37;7,72
1699,44;7,51
1697,51;7,42
1695,58;7,33
1693,65;7,19
1691,72;7,05
1689,79;6,88
1687,86;6,64
1685,93;6,43
1684,00;6,17
1682,07;5,90
1680,14;5,70
1678,21;5,47
1676,28;5,23
1674,35;4,95
1672,42;4,72
1670,49;4,52
1668,56;4,31
1666,63;4,12
1664,70;3,97
1662,77;3,81
1660,84;3,67
1658,91;3,55
1656,98;3,44
1655,05;3,32
1653,12;3,25
1651,19;3,15
1649,26;3,12
1647,33;3,10
1645,40;3,08
1643,47;3,07
1641,54;3,08
1639,61;3,08
1637,68;3,10
1635,75;3,13
1633,82;3,15
1631,89;3,20
1629,96;3,32
1628,03;3,55
1626,10;3,81
1624,17;4,08
1622,24;4,37
1620,31;4,61
1618,38;4,83
1616,45;5,13
1614,52;5,40
1612,59;5,63
1610,66;5,84
1608,73;6,07
1606,80;6,33
1604,87;6,63
1602,94;6,98
1601,01;7,34
1599,08;7,71
1597,15;8,09
1595,22;8,47
1593,29;8,84
1591,36;9,17
1589,43;9,51
1587,50;9,84
1585,57;10,15
1583,64;10,45
1581,71;10,74
1579,78;11,00
1577,85;11,26
1575,92;11,52
1573,99;11,80
1572,06;12,05
1570,13;12,27
1568,20;12,48
1566,27;12,70
1564,34;12,91
1562,41;13,12
1560,48;13,29
1558,55;13,42
1556,62;13,61
1554,69;13,81
1552,76;14,00
1550,83;14,18
1548,90;14,36
1546,97;14,48
1545,04;14,55
1543,11;14,55
1541,18;14,67
1539,25;14,92
1537,32;15,06
1535,39;15,11
1533,46;15,17
1531,53;15,15
1529,60;15,07
1527,67;14,93
1525,74;14,73
1523,81;14,44
1521,88;14,14
1519,95;13,65
1518,02;13,23
1516,09;12,87
1514,16;12,68
1512,23;12,63
1510,30;12,55
1508,37;12,45
1506,44;12,37
1504,51;12,21
1502,58;12,07
1500,65;11,80
1498,72;11,39
1496,79;10,82
1494,86;10,15
1492,93;9,46
1491,00;8,66
1489,07;7,76
1487,14;6,92
1485,21;6,11
1483,28;5,26
1481,35;4,32
1479,42;3,33
1477,49;2,38
1475,56;1,50
1473,63;0,80
1471,70;0,29
1469,77;0,07
1467,84;0,02
1465,91;0,01
1463,98;0,01
1462,05;0,01
1460,12;0,00
1458,19;0,01
1456,26;0,00
1454,33;0,02
1452,40;0,02
1450,47;0,04
1448,54;0,07
1446,61;0,12
1444,68;0,19
1442,75;0,31
1440,82;0,47
1438,89;0,68
1436,96;1,02
1435,03;1,55
1433,10;2,21
1431,17;3,09
1429,24;4,10
1427,31;5,01
1425,38;5,74
1423,45;6,34
1421,52;6,74
1419,59;7,07
1417,66;7,36
1415,73;7,63
1413,80;7,85
1411,87;8,04
1409,94;8,16
1408,01;8,23
1406,08;8,23
1404,15;8,20
1402,22;8,10
1400,29;7,92
1398,36;7,59
1396,43;7,08
1394,50;6,35
1392,57;5,53
1390,64;4,71
1388,71;3,78
1386,78;2,69
1384,85;1,70
1382,92;0,99
1380,99;0,50
1379,06;0,21
1377,13;0,13
1375,20;0,23
1373,27;0,51
1371,34;0,83
1369,41;0,97
1367,48;0,92
1365,55;1,00
1363,62;1,51
1361,69;2,35
1359,76;3,14
1357,83;3,67
1355,90;3,97
1353,97;4,15
1352,04;4,33
1350,11;4,59
1348,18;4,92
1346,25;5,22
1344,32;5,43
1342,39;5,56
1340,46;5,74
1338,53;6,07
1336,60;6,50
1334,67;6,93
1332,74;7,32
1330,81;7,66
1328,88;7,92
1326,95;8,11
1325,02;8,23
1323,09;8,27
1321,16;8,23
1319,23;8,14
1317,30;8,01
1315,37;7,88
1313,44;7,75
1311,51;7,64
1309,58;7,54
1307,65;7,46
1305,72;7,41
1303,79;7,38
1301,86;7,42
1299,93;7,52
1298,00;7,69
1296,07;7,91
1294,14;8,12
1292,21;8,32
1290,28;8,49
1288,35;8,61
1286,42;8,68
1284,49;8,70
1282,56;8,67
1280,63;8,62
1278,70;8,55
1276,77;8,50
1274,84;8,48
1272,91;8,49
1270,98;8,54
1269,05;8,64
1267,12;8,77
1265,19;8,88
1263,26;8,95
1261,33;8,98
1259,40;9,01
1257,47;9,02
1255,54;8,99
1253,61;8,90
1251,68;8,77
1249,75;8,59
1247,82;8,41
1245,89;8,23
1243,96;8,11
1242,03;8,01
1240,10;7,91
1238,17;7,76
1236,24;7,58
1234,31;7,45
1232,38;7,43
1230,45;7,56
1228,52;7,82
1226,59;8,13
1224,66;8,45
1222,73;8,74
1220,80;8,98
1218,87;9,16
1216,94;9,27
1215,01;9,33
1213,08;9,33
1211,15;9,30
1209,22;9,23
1207,29;9,14
1205,36;9,03
1203,43;8,93
1201,50;8,86
1199,57;8,82
1197,64;8,78
1195,71;8,73
1193,78;8,67
1191,85;8,63
1189,92;8,61
1187,99;8,60
1186,06;8,56
1184,13;8,45
1182,20;8,24
1180,27;7,98
1178,34;7,73
1176,41;7,49
1174,48;7,20
1172,55;6,86
1170,62;6,56
1168,69;6,36
1166,76;6,25
1164,83;6,14
1162,90;6,00
1160,97;5,83
1159,04;5,65
1157,11;5,50
1155,18;5,39
1153,25;5,37
1151,32;5,42
1149,39;5,56
1147,46;5,77
1145,53;6,04
1143,60;6,35
1141,67;6,69
1139,74;7,05
1137,81;7,40
1135,88;7,72
1133,95;8,00
1132,02;8,23
1130,09;8,39
1128,16;8,47
1126,23;8,47
1124,30;8,39
1122,37;8,26
1120,44;8,14
1118,51;8,05
1116,58;8,00
1114,65;7,99
1112,72;8,00
1110,79;8,07
1108,86;8,18
1106,93;8,32
1105,00;8,44
1103,07;8,53
1101,14;8,57
1099,21;8,56
1097,28;8,47
1095,35;8,31
1093,42;8,09
1091,49;7,84
1089,56;7,61
1087,63;7,47
1085,70;7,42
1083,77;7,48
1081,84;7,62
1079,91;7,84
1077,98;8,13
1076,05;8,46
1074,12;8,82
1072,19;9,17
1070,26;9,51
1068,33;9,79
1066,40;10,05
1064,47;10,29
1062,54;10,53
1060,61;10,78
1058,68;11,00
1056,75;11,16
1054,82;11,23
1052,89;11,22
1050,96;11,16
1049,03;11,09
1047,10;11,04
1045,17;11,01
1043,24;11,00
1041,31;11,00
1039,38;11,00
1037,45;11,00
1035,52;11,01
1033,59;11,07
1031,66;11,16
1029,73;11,30
1027,80;11,47
1025,87;11,67
1023,94;11,87
1022,01;12,08
1020,08;12,29
1018,15;12,49
1016,22;12,65
1014,29;12,78
1012,36;12,87
1010,43;12,95
1008,50;13,08
1006,57;13,24
1004,64;13,37
1002,71;13,46
1000,78;13,50
998,85;13,54
996,92;13,61
994,99;13,72
993,06;13,82
991,13;13,91
989,20;13,96
987,27;13,97
985,34;13,93
983,41;13,85
981,48;13,73
979,55;13,57
977,62;13,39
975,69;13,20
973,76;13,03
971,83;12,89
969,90;12,78
967,97;12,72
966,04;12,73
964,11;12,82
962,18;12,97
960,25;13,14
958,32;13,27
956,39;13,33
954,46;13,35
952,53;13,38
950,60;13,42
948,67;13,46
946,74;13,47
944,81;13,47
942,88;13,46
940,95;13,44
939,02;13,40
937,09;13,34
935,16;13,31
933,23;13,29
931,30;13,29
929,37;13,29
927,44;13,27
925,51;13,22
923,58;13,12
921,65;12,97
919,72;12,84
917,79;12,80
915,86;12,87
913,93;12,96
912,00;12,97
910,07;12,91
908,14;12,79
906,21;12,66
904,28;12,49
902,35;12,27
900,42;11,97
898,49;11,60
896,56;11,16
894,63;10,71
892,70;10,28
890,77;9,92
888,84;9,67
886,91;9,56
884,98;9,54
883,05;9,54
881,12;9,55
879,19;9,56
877,26;9,57
875,33;9,54
873,40;9,45
871,47;9,33
869,54;9,17
867,61;9,00
865,68;8,83
863,75;8,69
861,82;8,58
859,89;8,49
857,96;8,40
856,03;8,29
854,10;8,17
852,17;8,04
850,24;7,89
848,31;7,75
846,38;7,64
844,45;7,55
842,52;7,47
840,59;7,39
838,66;7,30
836,73;7,17
834,80;7,03
832,87;6,88
830,94;6,75
829,01;6,62
827,08;6,47
825,15;6,31
823,22;6,13
821,29;5,95
819,36;5,79
817,43;5,65
815,50;5,54
813,57;5,45
811,64;5,39
809,71;5,33
807,78;5,25
805,85;5,18
803,92;5,14
801,99;5,13
800,06;5,12
798,13;5,08
796,20;5,00
794,27;4,90
792,34;4,80
790,41;4,69
788,48;4,55
786,55;4,40
784,62;4,21
782,69;4,03
780,76;3,86
778,83;3,73
776,90;3,61
774,97;3,49
773,04;3,38
771,11;3,27
769,18;3,19
767,25;3,12
765,32;3,09
763,39;3,06
761,46;3,03
759,53;2,98
757,60;2,90
755,67;2,81
753,74;2,71
751,81;2,63
749,88;2,56
747,95;2,49
746,02;2,42
744,09;2,32
742,16;2,21
740,23;2,10
738,30;2,02
736,37;1,96
734,44;1,88
732,51;1,77
730,58;1,61
728,65;1,42
726,72;1,25
724,79;1,09
722,86;0,98
720,93;1,02
719,00;1,22
717,07;1,52
715,14;1,82
713,21;2,09
711,28;2,31
709,35;2,49
707,42;2,63
705,49;2,73
703,56;2,78
701,63;2,80
699,70;2,80
697,77;2,84
695,84;2,95
693,91;3,07
691,98;3,17
690,05;3,22
688,12;3,27
686,19;3,30
684,26;3,33
682,33;3,35
680,40;3,36
678,47;3,37
676,54;3,36
674,61;3,36
672,68;3,36
670,75;3,35
668,82;3,34
666,89;3,35
664,96;3,35
663,03;3,35
661,10;3,35
659,17;3,36
657,24;3,37
655,31;3,39
653,38;3,42
651,45;3,44
649,52;3,47
647,59;3,50
645,66;3,54
643,73;3,57
641,80;3,59
639,87;3,62
637,94;3,64
636,01;3,67
634,08;3,69
632,15;3,71
630,22;3,73
628,29;3,74
626,36;3,76
624,43;3,79
622,50;3,81
620,57;3,83
618,64;3,85
616,71;3,88
614,78;3,90
612,85;3,92
610,92;3,94
608,99;3,96
607,06;3,97
605,13;3,98
603,20;4,00
601,27;4,03
599,34;4,08
597,41;4,14
595,48;4,20
593,55;4,25
591,62;4,29
589,69;4,35
587,76;4,40
585,83;4,43
583,90;4,48
581,97;4,52
580,04;4,57
578,11;4,62
576,18;4,67
574,25;4,70
572,32;4,74
570,39;4,78
568,46;4,82
566,53;4,86
564,60;4,91
562,67;4,97
560,74;5,04
558,81;5,11
556,88;5,18
554,95;5,24
553,02;5,29
551,09;5,35
549,16;5,41
547,23;5,49
545,30;5,56
543,37;5,63
541,44;5,69
539,51;5,74
537,58;5,80
535,65;5,88
533,72;5,97
531,79;6,04
529,86;6,11
527,93;6,18
526,00;6,26
524,07;6,33
522,14;6,42
520,21;6,49
518,28;6,59
516,35;6,70
514,42;6,82
512,49;6,93
510,56;7,02
508,63;7,11
506,70;7,21
504,77;7,33
502,84;7,43
500,91;7,53
